1.78897
    7.000    3690.000      60.745
    7.020    3816.000      61.774
    7.040    3772.000      61.417
    7.060    3682.000      60.679
    7.080    3714.000      60.943
    7.100    3792.000      61.579
    7.120    3783.000      61.506
    7.140    3852.000      62.064
    7.160    3753.000      61.262
    7.180    3836.000      61.935
    7.200    3748.000      61.221
    7.220    3729.000      61.066
    7.240    3794.000      61.595
    7.260    3764.000      61.351
    7.280    3727.000      61.049
    7.300    3682.000      60.679
    7.320    3755.000      61.278
    7.340    3818.000      61.790
    7.360    3750.000      61.237
    7.380    3747.000      61.213
    7.400    3826.000      61.855
    7.420    3799.000      61.636
    7.440    3824.000      61.839
    7.460    3768.000      61.384
    7.480    3830.000      61.887
    7.500    3740.000      61.156
    7.520    3736.000      61.123
    7.540    3773.000      61.425
    7.560    3744.000      61.188
    7.580    3761.000      61.327
    7.600    3650.000      60.415
    7.620    3605.000      60.042
    7.640    3772.000      61.417
    7.660    3774.000      61.433
    7.680    3745.000      61.196
    7.700    3721.000      61.000
    7.720    3648.000      60.399
    7.740    3702.000      60.844
    7.760    3755.000      61.278
    7.780    3719.000      60.984
    7.800    3755.000      61.278
    7.820    3773.000      61.425
    7.840    3698.000      60.811
    7.860    3661.000      60.506
    7.880    3845.000      62.008
    7.900    3704.000      60.860
    7.920    3624.000      60.200
    7.940    3907.000      62.506
    7.960    3804.000      61.677
    7.980    3831.000      61.895
    8.000    3812.000      61.741
    8.020    3760.000      61.319
    8.040    3778.000      61.465
    8.060    3701.000      60.836
    8.080    3779.000      61.474
    8.100    3844.000      62.000
    8.120    3706.000      60.877
    8.140    3743.000      61.180
    8.160    3752.000      61.254
    8.180    3904.000      62.482
    8.200    3990.000      63.166
    8.220    3899.000      62.442
    8.240    3927.000      62.666
    8.260    4110.000      64.109
    8.280    4179.000      64.645
    8.300    4147.000      64.397
    8.320    4306.000      65.620
    8.340    4448.000      66.693
    8.360    4512.000      67.171
    8.380    4625.000      68.007
    8.400    4712.000      68.644
    8.420    4955.000      70.392
    8.440    5124.000      71.582
    8.460    5375.000      73.314
    8.480    5567.000      74.612
    8.500    5905.000      76.844
    8.520    6289.000      79.303
    8.540    6501.000      80.629
    8.560    7040.000      83.905
    8.580    7702.000      87.761
    8.600    8200.000      90.554
    8.620    8722.000      93.392
    8.640    9611.000      98.036
    8.660   10511.000     102.523
    8.680   11772.000     108.499
    8.700   12899.000     113.574
    8.720   14419.000     120.079
    8.740   14996.000     122.458
    8.760   14733.000     121.380
    8.780   12678.000     112.597
    8.800   10106.000     100.529
    8.820    7408.000      86.070
    8.840    5644.000      75.127
    8.860    4702.000      68.571
    8.880    4277.000      65.399
    8.900    4060.000      63.718
    8.920    3868.000      62.193
    8.940    3766.000      61.368
    8.960    3766.000      61.368
    8.980    3858.000      62.113
    9.000    3784.000      61.514
    9.020    3771.000      61.408
    9.040    3612.000      60.100
    9.060    3555.000      59.624
    9.080    3707.000      60.885
    9.100    3758.000      61.303
    9.120    3572.000      59.766
    9.140    3643.000      60.357
    9.160    3609.000      60.075
    9.180    3642.000      60.349
    9.200    3561.000      59.674
    9.220    3620.000      60.166
    9.240    3529.000      59.405
    9.260    3504.000      59.195
    9.280    3574.000      59.783
    9.300    3650.000      60.415
    9.320    3587.000      59.892
    9.340    3506.000      59.211
    9.360    3524.000      59.363
    9.380    3497.000      59.135
    9.400    3510.000      59.245
    9.420    3624.000      60.200
    9.440    3552.000      59.599
    9.460    3483.000      59.017
    9.480    3503.000      59.186
    9.500    3504.000      59.195
    9.520    3531.000      59.422
    9.540    3405.000      58.352
    9.560    3385.000      58.181
    9.580    3517.000      59.304
    9.600    3511.000      59.254
    9.620    3445.000      58.694
    9.640    3417.000      58.455
    9.660    3483.000      59.017
    9.680    3487.000      59.051
    9.700    3424.000      58.515
    9.720    3396.000      58.275
    9.740    3384.000      58.172
    9.760    3454.000      58.771
    9.780    3459.000      58.813
    9.800    3416.000      58.447
    9.820    3427.000      58.541
    9.840    3310.000      57.533
    9.860    3403.000      58.335
    9.880    3311.000      57.541
    9.900    3350.000      57.879
    9.920    3371.000      58.060
    9.940    3365.000      58.009
    9.960    3398.000      58.292
    9.980    3342.000      57.810
   10.000    3272.000      57.201
   10.020    3377.000      58.112
   10.040    3267.000      57.158
   10.060    3258.000      57.079
   10.080    3274.000      57.219
   10.100    3301.000      57.454
   10.120    3402.000      58.327
   10.140    3403.000      58.335
   10.160    3310.000      57.533
   10.180    3355.000      57.922
   10.200    3301.000      57.454
   10.220    3277.000      57.245
   10.240    3176.000      56.356
   10.260    3221.000      56.754
   10.280    3254.000      57.044
   10.300    3186.000      56.445
   10.320    3279.000      57.263
   10.340    3251.000      57.018
   10.360    3246.000      56.974
   10.380    3269.000      57.175
   10.400    3272.000      57.201
   10.420    3281.000      57.280
   10.440    3360.000      57.966
   10.460    3183.000      56.418
   10.480    3218.000      56.727
   10.500    3246.000      56.974
   10.520    3178.000      56.374
   10.540    3221.000      56.754
   10.560    3252.000      57.026
   10.580    3299.000      57.437
   10.600    3216.000      56.710
   10.620    3222.000      56.763
   10.640    3305.000      57.489
   10.660    3146.000      56.089
   10.680    3159.000      56.205
   10.700    3214.000      56.692
   10.720    3222.000      56.763
   10.740    3134.000      55.982
   10.760    3165.000      56.258
   10.780    3204.000      56.604
   10.800    3049.000      55.218
   10.820    3122.000      55.875
   10.840    3126.000      55.911
   10.860    3106.000      55.731
   10.880    3155.000      56.169
   10.900    3162.000      56.232
   10.920    3145.000      56.080
   10.940    3195.000      56.524
   10.960    3140.000      56.036
   10.980    3176.000      56.356
   11.000    3085.000      55.543
   11.020    3078.000      55.480
   11.040    3146.000      56.089
   11.060    3082.000      55.516
   11.080    3068.000      55.390
   11.100    3111.000      55.776
   11.120    3156.000      56.178
   11.140    3094.000      55.624
   11.160    3049.000      55.218
   11.180    3065.000      55.362
   11.200    2985.000      54.635
   11.220    3054.000      55.263
   11.240    3042.000      55.154
   11.260    3042.000      55.154
   11.280    3079.000      55.489
   11.300    3038.000      55.118
   11.320    3019.000      54.945
   11.340    3085.000      55.543
   11.360    2993.000      54.708
   11.380    3024.000      54.991
   11.400    2982.000      54.608
   11.420    3051.000      55.236
   11.440    3071.000      55.417
   11.460    3070.000      55.408
   11.480    2980.000      54.589
   11.500    2982.000      54.608
   11.520    3020.000      54.955
   11.540    3004.000      54.809
   11.560    2982.000      54.608
   11.580    3044.000      55.172
   11.600    3019.000      54.945
   11.620    3054.000      55.263
   11.640    3036.000      55.100
   11.660    3005.000      54.818
   11.680    2987.000      54.653
   11.700    2930.000      54.129
   11.720    2921.000      54.046
   11.740    2961.000      54.415
   11.760    2942.000      54.240
   11.780    3038.000      55.118
   11.800    2993.000      54.708
   11.820    2980.000      54.589
   11.840    3003.000      54.800
   11.860    2944.000      54.259
   11.880    2959.000      54.397
   11.900    2889.000      53.749
   11.920    2962.000      54.424
   11.940    2844.000      53.329
   11.960    2867.000      53.544
   11.980    2794.000      52.858
   12.000    2904.000      53.889
   12.020    2895.000      53.805
   12.040    2866.000      53.535
   12.060    2932.000      54.148
   12.080    2917.000      54.009
   12.100    2941.000      54.231
   12.120    2909.000      53.935
   12.140    2904.000      53.889
   12.160    2845.000      53.339
   12.180    2839.000      53.282
   12.200    2929.000      54.120
   12.220    2896.000      53.814
   12.240    2881.000      53.675
   12.260    2829.000      53.188
   12.280    2839.000      53.282
   12.300    2845.000      53.339
   12.320    2905.000      53.898
   12.340    2929.000      54.120
   12.360    2870.000      53.572
   12.380    2846.000      53.348
   12.400    2913.000      53.972
   12.420    2884.000      53.703
   12.440    2859.000      53.470
   12.460    2944.000      54.259
   12.480    2956.000      54.369
   12.500    2821.000      53.113
   12.520    2869.000      53.563
   12.540    2751.000      52.450
   12.560    2884.000      53.703
   12.580    2861.000      53.488
   12.600    2823.000      53.132
   12.620    2807.000      52.981
   12.640    2850.000      53.385
   12.660    2775.000      52.678
   12.680    2792.000      52.839
   12.700    2752.000      52.460
   12.720    2746.000      52.402
   12.740    2842.000      53.310
   12.760    2758.000      52.517
   12.780    2754.000      52.479
   12.800    2759.000      52.526
   12.820    2797.000      52.887
   12.840    2695.000      51.913
   12.860    2767.000      52.602
   12.880    2805.000      52.962
   12.900    2836.000      53.254
   12.920    2721.000      52.163
   12.940    2783.000      52.754
   12.960    2731.000      52.259
   12.980    2780.000      52.726
   13.000    2772.000      52.650
   13.020    2719.000      52.144
   13.040    2747.000      52.412
   13.060    2779.000      52.716
   13.080    2780.000      52.726
   13.100    2759.000      52.526
   13.120    2726.000      52.211
   13.140    2779.000      52.716
   13.160    2789.000      52.811
   13.180    2776.000      52.688
   13.200    2677.000      51.740
   13.220    2703.000      51.990
   13.240    2702.000      51.981
   13.260    2743.000      52.374
   13.280    2676.000      51.730
   13.300    2661.000      51.585
   13.320    2731.000      52.259
   13.340    2753.000      52.469
   13.360    2730.000      52.249
   13.380    2706.000      52.019
   13.400    2672.000      51.691
   13.420    2637.000      51.352
   13.440    2621.000      51.196
   13.460    2688.000      51.846
   13.480    2632.000      51.303
   13.500    2627.000      51.254
   13.520    2668.000      51.653
   13.540    2686.000      51.827
   13.560    2702.000      51.981
   13.580    2711.000      52.067
   13.600    2674.000      51.711
   13.620    2571.000      50.705
   13.640    2645.000      51.430
   13.660    2644.000      51.420
   13.680    2709.000      52.048
   13.700    2720.000      52.154
   13.720    2637.000      51.352
   13.740    2654.000      51.517
   13.760    2626.000      51.245
   13.780    2694.000      51.904
   13.800    2655.000      51.527
   13.820    2623.000      51.215
   13.840    2688.000      51.846
   13.860    2638.000      51.361
   13.880    2642.000      51.400
   13.900    2604.000      51.029
   13.920    2552.000      50.517
   13.940    2602.000      51.010
   13.960    2558.000      50.577
   13.980    2660.000      51.575
   14.000    2595.000      50.941
   14.020    2616.000      51.147
   14.040    2649.000      51.468
   14.060    2529.000      50.289
   14.080    2568.000      50.675
   14.100    2630.000      51.284
   14.120    2580.000      50.794
   14.140    2608.000      51.069
   14.160    2548.000      50.478
   14.180    2554.000      50.537
   14.200    2637.000      51.352
   14.220    2671.000      51.682
   14.240    2582.000      50.813
   14.260    2626.000      51.245
   14.280    2668.000      51.653
   14.300    2581.000      50.804
   14.320    2577.000      50.764
   14.340    2558.000      50.577
   14.360    2577.000      50.764
   14.380    2571.000      50.705
   14.400    2495.000      49.950
   14.420    2558.000      50.577
   14.440    2539.000      50.388
   14.460    2580.000      50.794
   14.480    2523.000      50.229
   14.500    2502.000      50.020
   14.520    2564.000      50.636
   14.540    2477.000      49.769
   14.560    2433.000      49.325
   14.580    2497.000      49.970
   14.600    2536.000      50.359
   14.620    2528.000      50.279
   14.640    2569.000      50.685
   14.660    2443.000      49.427
   14.680    2561.000      50.606
   14.700    2480.000      49.800
   14.720    2464.000      49.639
   14.740    2509.000      50.090
   14.760    2501.000      50.010
   14.780    2504.000      50.040
   14.800    2389.000      48.877
   14.820    2456.000      49.558
   14.840    2584.000      50.833
   14.860    2443.000      49.427
   14.880    2413.000      49.122
   14.900    2510.000      50.100
   14.920    2492.000      49.920
   14.940    2462.000      49.619
   14.960    2496.000      49.960
   14.980    2513.000      50.130
   15.000    2525.000      50.249
   15.020    2530.000      50.299
   15.040    2428.000      49.275
   15.060    2405.000      49.041
   15.080    2507.000      50.070
   15.100    2452.000      49.518
   15.120    2469.000      49.689
   15.140    2476.000      49.759
   15.160    2479.000      49.790
   15.180    2467.000      49.669
   15.200    2382.000      48.806
   15.220    2429.000      49.285
   15.240    2438.000      49.376
   15.260    2460.000      49.598
   15.280    2440.000      49.396
   15.300    2429.000      49.285
   15.320    2434.000      49.336
   15.340    2460.000      49.598
   15.360    2470.000      49.699
   15.380    2305.000      48.010
   15.400    2340.000      48.374
   15.420    2382.000      48.806
   15.440    2539.000      50.388
   15.460    2438.000      49.376
   15.480    2386.000      48.847
   15.500    2405.000      49.041
   15.520    2431.000      49.305
   15.540    2396.000      48.949
   15.560    2334.000      48.311
   15.580    2369.000      48.672
   15.600    2463.000      49.629
   15.620    2404.000      49.031
   15.640    2391.000      48.898
   15.660    2420.000      49.193
   15.680    2380.000      48.785
   15.700    2368.000      48.662
   15.720    2449.000      49.487
   15.740    2370.000      48.683
   15.760    2345.000      48.425
   15.780    2349.000      48.466
   15.800    2364.000      48.621
   15.820    2315.000      48.114
   15.840    2370.000      48.683
   15.860    2440.000      49.396
   15.880    2423.000      49.224
   15.900    2390.000      48.888
   15.920    2392.000      48.908
   15.940    2405.000      49.041
   15.960    2377.000      48.754
   15.980    2319.000      48.156
   16.000    2356.000      48.539
   16.020    2394.000      48.929
   16.040    2369.000      48.672
   16.060    2317.000      48.135
   16.080    2358.000      48.559
   16.100    2313.000      48.094
   16.120    2314.000      48.104
   16.140    2415.000      49.143
   16.160    2364.000      48.621
   16.180    2301.000      47.969
   16.200    2347.000      48.446
   16.220    2378.000      48.765
   16.240    2361.000      48.590
   16.260    2319.000      48.156
   16.280    2364.000      48.621
   16.300    2355.000      48.528
   16.320    2378.000      48.765
   16.340    2363.000      48.611
   16.360    2317.000      48.135
   16.380    2365.000      48.631
   16.400    2297.000      47.927
   16.420    2329.000      48.260
   16.440    2316.000      48.125
   16.460    2312.000      48.083
   16.480    2417.000      49.163
   16.500    2333.000      48.301
   16.520    2325.000      48.218
   16.540    2362.000      48.600
   16.560    2370.000      48.683
   16.580    2347.000      48.446
   16.600    2337.000      48.343
   16.620    2319.000      48.156
   16.640    2400.000      48.990
   16.660    2370.000      48.683
   16.680    2415.000      49.143
   16.700    2349.000      48.466
   16.720    2321.000      48.177
   16.740    2336.000      48.332
   16.760    2331.000      48.280
   16.780    2313.000      48.094
   16.800    2307.000      48.031
   16.820    2392.000      48.908
   16.840    2354.000      48.518
   16.860    2423.000      49.224
   16.880    2435.000      49.346
   16.900    2470.000      49.699
   16.920    2402.000      49.010
   16.940    2479.000      49.790
   16.960    2573.000      50.725
   16.980    2578.000      50.774
   17.000    2614.000      51.127
   17.020    2718.000      52.134
   17.040    2679.000      51.759
   17.060    2775.000      52.678
   17.080    3023.000      54.982
   17.100    3329.000      57.697
   17.120    3633.000      60.274
   17.140    4009.000      63.317
   17.160    4562.000      67.543
   17.180    5350.000      73.144
   17.200    6357.000      79.731
   17.220    7508.000      86.649
   17.240    8776.000      93.680
   17.260    9830.000      99.146
   17.280   10292.000     101.449
   17.300    9682.000      98.397
   17.320    8183.000      90.460
   17.340    6268.000      79.171
   17.360    4806.000      69.325
   17.380    3550.000      59.582
   17.400    2928.000      54.111
   17.420    2623.000      51.215
   17.440    2435.000      49.346
   17.460    2390.000      48.888
   17.480    2408.000      49.071
   17.500    2281.000      47.760
   17.520    2313.000      48.094
   17.540    2290.000      47.854
   17.560    2277.000      47.718
   17.580    2280.000      47.749
   17.600    2293.000      47.885
   17.620    2227.000      47.191
   17.640    2361.000      48.590
   17.660    2245.000      47.381
   17.680    2182.000      46.712
   17.700    2278.000      47.728
   17.720    2250.000      47.434
   17.740    2309.000      48.052
   17.760    2294.000      47.896
   17.780    2241.000      47.339
   17.800    2209.000      47.000
   17.820    2343.000      48.405
   17.840    2237.000      47.297
   17.860    2280.000      47.749
   17.880    2254.000      47.476
   17.900    2136.000      46.217
   17.920    2222.000      47.138
   17.940    2151.000      46.379
   17.960    2226.000      47.181
   17.980    2194.000      46.840
   18.000    2212.000      47.032
   18.020    2154.000      46.411
   18.040    2167.000      46.551
   18.060    2215.000      47.064
   18.080    2242.000      47.350
   18.100    2221.000      47.127
   18.120    2232.000      47.244
   18.140    2209.000      47.000
   18.160    2154.000      46.411
   18.180    2216.000      47.074
   18.200    2206.000      46.968
   18.220    2252.000      47.455
   18.240    2230.000      47.223
   18.260    2216.000      47.074
   18.280    2232.000      47.244
   18.300    2187.000      46.765
   18.320    2173.000      46.615
   18.340    2145.000      46.314
   18.360    2207.000      46.979
   18.380    2141.000      46.271
   18.400    2211.000      47.021
   18.420    2203.000      46.936
   18.440    2211.000      47.021
   18.460    2177.000      46.658
   18.480    2227.000      47.191
   18.500    2190.000      46.797
   18.520    2194.000      46.840
   18.540    2186.000      46.755
   18.560    2328.000      48.249
   18.580    2264.000      47.582
   18.600    2364.000      48.621
   18.620    2424.000      49.234
   18.640    2466.000      49.659
   18.660    2550.000      50.498
   18.680    2769.000      52.621
   18.700    2907.000      53.917
   18.720    3053.000      55.254
   18.740    3195.000      56.524
   18.760    3266.000      57.149
   18.780    3213.000      56.683
   18.800    3036.000      55.100
   18.820    2831.000      53.207
   18.840    2558.000      50.577
   18.860    2360.000      48.580
   18.880    2214.000      47.053
   18.900    2160.000      46.476
   18.920    2159.000      46.465
   18.940    2156.000      46.433
   18.960    2180.000      46.690
   18.980    2115.000      45.989
   19.000    2191.000      46.808
   19.020    2127.000      46.119
   19.040    2106.000      45.891
   19.060    2201.000      46.915
   19.080    2120.000      46.043
   19.100    2133.000      46.184
   19.120    2134.000      46.195
   19.140    2131.000      46.163
   19.160    2154.000      46.411
   19.180    2116.000      46.000
   19.200    2121.000      46.054
   19.220    2102.000      45.848
   19.240    2098.000      45.804
   19.260    2157.000      46.444
   19.280    2105.000      45.880
   19.300    2172.000      46.605
   19.320    2108.000      45.913
   19.340    2160.000      46.476
   19.360    2118.000      46.022
   19.380    2194.000      46.840
   19.400    2168.000      46.562
   19.420    2138.000      46.239
   19.440    2174.000      46.626
   19.460    2080.000      45.607
   19.480    2089.000      45.706
   19.500    2039.000      45.155
   19.520    2047.000      45.244
   19.540    2110.000      45.935
   19.560    2079.000      45.596
   19.580    2128.000      46.130
   19.600    2129.000      46.141
   19.620    2151.000      46.379
   19.640    2105.000      45.880
   19.660    2083.000      45.640
   19.680    2062.000      45.409
   19.700    2061.000      45.398
   19.720    2109.000      45.924
   19.740    2103.000      45.858
   19.760    2101.000      45.837
   19.780    2090.000      45.717
   19.800    1995.000      44.665
   19.820    2120.000      46.043
   19.840    2102.000      45.848
   19.860    2085.000      45.662
   19.880    2181.000      46.701
   19.900    2121.000      46.054
   19.920    2113.000      45.967
   19.940    2115.000      45.989
   19.960    2146.000      46.325
   19.980    2048.000      45.255
   20.000    2048.000      45.255
   20.020    2093.000      45.749
   20.040    2035.000      45.111
   20.060    2052.000      45.299
   20.080    2018.000      44.922
   20.100    2033.000      45.089
   20.120    2016.000      44.900
   20.140    2055.000      45.332
   20.160    2016.000      44.900
   20.180    2103.000      45.858
   20.200    2044.000      45.211
   20.220    2041.000      45.177
   20.240    2044.000      45.211
   20.260    2016.000      44.900
   20.280    2071.000      45.508
   20.300    2128.000      46.130
   20.320    2086.000      45.673
   20.340    2062.000      45.409
   20.360    2149.000      46.357
   20.380    2101.000      45.837
   20.400    2054.000      45.321
   20.420    2105.000      45.880
   20.440    2071.000      45.508
   20.460    2004.000      44.766
   20.480    2102.000      45.848
   20.500    2033.000      45.089
   20.520    2091.000      45.727
   20.540    2168.000      46.562
   20.560    2094.000      45.760
   20.580    2094.000      45.760
   20.600    2164.000      46.519
   20.620    2151.000      46.379
   20.640    2198.000      46.883
   20.660    2267.000      47.613
   20.680    2429.000      49.285
   20.700    2492.000      49.920
   20.720    2658.000      51.556
   20.740    2857.000      53.451
   20.760    2855.000      53.432
   20.780    2914.000      53.981
   20.800    2781.000      52.735
   20.820    2897.000      53.824
   20.840    2584.000      50.833
   20.860    2444.000      49.437
   20.880    2251.000      47.445
   20.900    2218.000      47.096
   20.920    2146.000      46.325
   20.940    2102.000      45.848
   20.960    2131.000      46.163
   20.980    2113.000      45.967
   21.000    2001.000      44.733
   21.020    2034.000      45.100
   21.040    2128.000      46.130
   21.060    2067.000      45.464
   21.080    2121.000      46.054
   21.100    2189.000      46.787
   21.120    2186.000      46.755
   21.140    2240.000      47.329
   21.160    2528.000      50.279
   21.180    2606.000      51.049
   21.200    2879.000      53.656
   21.220    3215.000      56.701
   21.240    3744.000      61.188
   21.260    4046.000      63.608
   21.280    4557.000      67.506
   21.300    4843.000      69.592
   21.320    4966.000      70.470
   21.340    4567.000      67.580
   21.360    3942.000      62.785
   21.380    3407.000      58.370
   21.400    2900.000      53.852
   21.420    2541.000      50.408
   21.440    2290.000      47.854
   21.460    2215.000      47.064
   21.480    2206.000      46.968
   21.500    2187.000      46.765
   21.520    2120.000      46.043
   21.540    2133.000      46.184
   21.560    2147.000      46.336
   21.580    2183.000      46.723
   21.600    2128.000      46.130
   21.620    2067.000      45.464
   21.640    2148.000      46.347
   21.660    2056.000      45.343
   21.680    1963.000      44.306
   21.700    1941.000      44.057
   21.720    1940.000      44.045
   21.740    1928.000      43.909
   21.760    1941.000      44.057
   21.780    1879.000      43.347
   21.800    1964.000      44.317
   21.820    1981.000      44.508
   21.840    1893.000      43.509
   21.860    2039.000      45.155
   21.880    1980.000      44.497
   21.900    1956.000      44.227
   21.920    1914.000      43.749
   21.940    1993.000      44.643
   21.960    1933.000      43.966
   21.980    1934.000      43.977
   22.000    1952.000      44.181
   22.020    2027.000      45.022
   22.040    1933.000      43.966
   22.060    1899.000      43.578
   22.080    1951.000      44.170
   22.100    1956.000      44.227
   22.120    1945.000      44.102
   22.140    1912.000      43.726
   22.160    1848.000      42.988
   22.180    2022.000      44.967
   22.200    1973.000      44.418
   22.220    1897.000      43.555
   22.240    1944.000      44.091
   22.260    1878.000      43.336
   22.280    1979.000      44.486
   22.300    1950.000      44.159
   22.320    1914.000      43.749
   22.340    1869.000      43.232
   22.360    1944.000      44.091
   22.380    1913.000      43.738
   22.400    1874.000      43.290
   22.420    1914.000      43.749
   22.440    1989.000      44.598
   22.460    1907.000      43.669
   22.480    1919.000      43.806
   22.500    1957.000      44.238
   22.520    1863.000      43.162
   22.540    1982.000      44.520
   22.560    1924.000      43.863
   22.580    1947.000      44.125
   22.600    1960.000      44.272
   22.620    1978.000      44.475
   22.640    1827.000      42.743
   22.660    1870.000      43.243
   22.680    1882.000      43.382
   22.700    1933.000      43.966
   22.720    1941.000      44.057
   22.740    1868.000      43.220
   22.760    1845.000      42.953
   22.780    1925.000      43.875
   22.800    1923.000      43.852
   22.820    1931.000      43.943
   22.840    1916.000      43.772
   22.860    1874.000      43.290
   22.880    1875.000      43.301
   22.900    1869.000      43.232
   22.920    1910.000      43.704
   22.940    1894.000      43.520
   22.960    1951.000      44.170
   22.980    1969.000      44.373
   23.000    1881.000      43.370
   23.020    1880.000      43.359
   23.040    1911.000      43.715
   23.060    1876.000      43.313
   23.080    1817.000      42.626
   23.100    1943.000      44.079
   23.120    1900.000      43.589
   23.140    1933.000      43.966
   23.160    1896.000      43.543
   23.180    1903.000      43.623
   23.200    1940.000      44.045
   23.220    1915.000      43.761
   23.240    1938.000      44.023
   23.260    1826.000      42.732
   23.280    1881.000      43.370
   23.300    1817.000      42.626
   23.320    1898.000      43.566
   23.340    1966.000      44.340
   23.360    1864.000      43.174
   23.380    1831.000      42.790
   23.400    1855.000      43.070
   23.420    1835.000      42.837
   23.440    1904.000      43.635
   23.460    1846.000      42.965
   23.480    1863.000      43.162
   23.500    1885.000      43.417
   23.520    1952.000      44.181
   23.540    1957.000      44.238
   23.560    1945.000      44.102
   23.580    2019.000      44.933
   23.600    2025.000      45.000
   23.620    2064.000      45.431
   23.640    2084.000      45.651
   23.660    1965.000      44.328
   23.680    1933.000      43.966
   23.700    1942.000      44.068
   23.720    1861.000      43.139
   23.740    1878.000      43.336
   23.760    1830.000      42.778
   23.780    1966.000      44.340
   23.800    1736.000      41.665
   23.820    1874.000      43.290
   23.840    1937.000      44.011
   23.860    1857.000      43.093
   23.880    1817.000      42.626
   23.900    1856.000      43.081
   23.920    1826.000      42.732
   23.940    1792.000      42.332
   23.960    1772.000      42.095
   23.980    1825.000      42.720
   24.000    1874.000      43.290
   24.020    1839.000      42.884
   24.040    1848.000      42.988
   24.060    1857.000      43.093
   24.080    1865.000      43.186
   24.100    1833.000      42.814
   24.120    1863.000      43.162
   24.140    1777.000      42.154
   24.160    1857.000      43.093
   24.180    1758.000      41.929
   24.200    1799.000      42.415
   24.220    1750.000      41.833
   24.240    1844.000      42.942
   24.260    1821.000      42.673
   24.280    1854.000      43.058
   24.300    1835.000      42.837
   24.320    1846.000      42.965
   24.340    1928.000      43.909
   24.360    1961.000      44.283
   24.380    1947.000      44.125
   24.400    1923.000      43.852
   24.420    2066.000      45.453
   24.440    2054.000      45.321
   24.460    2090.000      45.717
   24.480    2056.000      45.343
   24.500    2024.000      44.989
   24.520    1979.000      44.486
   24.540    1897.000      43.555
   24.560    1850.000      43.012
   24.580    1857.000      43.093
   24.600    1890.000      43.474
   24.620    1830.000      42.778
   24.640    1850.000      43.012
   24.660    1860.000      43.128
   24.680    1818.000      42.638
   24.700    1831.000      42.790
   24.720    1877.000      43.324
   24.740    1901.000      43.600
   24.760    1936.000      44.000
   24.780    1982.000      44.520
   24.800    2042.000      45.188
   24.820    2075.000      45.552
   24.840    2218.000      47.096
   24.860    2408.000      49.071
   24.880    2739.000      52.335
   24.900    3043.000      55.163
   24.920    3495.000      59.119
   24.940    3952.000      62.865
   24.960    4532.000      67.320
   24.980    4737.000      68.826
   25.000    4794.000      69.239
   25.020    4666.000      68.308
   25.040    3942.000      62.785
   25.060    3350.000      57.879
   25.080    2912.000      53.963
   25.100    2501.000      50.010
   25.120    2217.000      47.085
   25.140    2104.000      45.869
   25.160    1960.000      44.272
   25.180    1915.000      43.761
   25.200    1948.000      44.136
   25.220    1898.000      43.566
   25.240    1868.000      43.220
   25.260    1836.000      42.849
   25.280    1869.000      43.232
   25.300    1813.000      42.579
   25.320    1875.000      43.301
   25.340    1893.000      43.509
   25.360    1902.000      43.612
   25.380    1936.000      44.000
   25.400    1980.000      44.497
   25.420    2030.000      45.056
   25.440    2104.000      45.869
   25.460    2141.000      46.271
   25.480    2139.000      46.249
   25.500    1981.000      44.508
   25.520    1937.000      44.011
   25.540    1950.000      44.159
   25.560    1787.000      42.273
   25.580    1716.000      41.425
   25.600    1727.000      41.557
   25.620    1693.000      41.146
   25.640    1740.000      41.713
   25.660    1703.000      41.267
   25.680    1744.000      41.761
   25.700    1735.000      41.653
   25.720    1733.000      41.629
   25.740    1787.000      42.273
   25.760    1741.000      41.725
   25.780    1758.000      41.929
   25.800    1740.000      41.713
   25.820    1758.000      41.929
   25.840    1763.000      41.988
   25.860    1720.000      41.473
   25.880    1706.000      41.304
   25.900    1711.000      41.364
   25.920    1626.000      40.324
   25.940    1688.000      41.085
   25.960    1746.000      41.785
   25.980    1694.000      41.158
   26.000    1661.000      40.755
   26.020    1740.000      41.713
   26.040    1744.000      41.761
   26.060    1709.000      41.340
   26.080    1659.000      40.731
   26.100    1654.000      40.669
   26.120    1773.000      42.107
   26.140    1762.000      41.976
   26.160    1732.000      41.617
   26.180    1709.000      41.340
   26.200    1697.000      41.195
   26.220    1730.000      41.593
   26.240    1668.000      40.841
   26.260    1735.000      41.653
   26.280    1703.000      41.267
   26.300    1760.000      41.952
   26.320    1767.000      42.036
   26.340    1731.000      41.605
   26.360    1727.000      41.557
   26.380    1672.000      40.890
   26.400    1684.000      41.037
   26.420    1740.000      41.713
   26.440    1727.000      41.557
   26.460    1692.000      41.134
   26.480    1699.000      41.219
   26.500    1673.000      40.902
   26.520    1715.000      41.413
   26.540    1646.000      40.571
   26.560    1726.000      41.545
   26.580    1757.000      41.917
   26.600    1695.000      41.170
   26.620    1703.000      41.267
   26.640    1714.000      41.400
   26.660    1668.000      40.841
   26.680    1762.000      41.976
   26.700    1668.000      40.841
   26.720    1649.000      40.608
   26.740    1762.000      41.976
   26.760    1778.000      42.166
   26.780    1757.000      41.917
   26.800    1776.000      42.143
   26.820    1876.000      43.313
   26.840    1897.000      43.555
   26.860    2102.000      45.848
   26.880    2250.000      47.434
   26.900    2464.000      49.639
   26.920    2900.000      53.852
   26.940    3327.000      57.680
   26.960    4227.000      65.015
   26.980    5348.000      73.130
   27.000    6898.000      83.054
   27.020    8779.000      93.696
   27.040   10782.000     103.836
   27.060   13049.000     114.232
   27.080   14557.000     120.652
   27.100   15079.000     122.797
   27.120   14641.000     121.000
   27.140   13240.000     115.065
   27.160   10884.000     104.326
   27.180    8420.000      91.761
   27.200    6226.000      78.905
   27.220    4549.000      67.446
   27.240    3517.000      59.304
   27.260    2763.000      52.564
   27.280    2306.000      48.021
   27.300    2098.000      45.804
   27.320    1960.000      44.272
   27.340    1858.000      43.105
   27.360    1765.000      42.012
   27.380    1733.000      41.629
   27.400    1736.000      41.665
   27.420    1683.000      41.024
   27.440    1687.000      41.073
   27.460    1621.000      40.262
   27.480    1627.000      40.336
   27.500    1643.000      40.534
   27.520    1716.000      41.425
   27.540    1690.000      41.110
   27.560    1746.000      41.785
   27.580    1717.000      41.437
   27.600    1978.000      44.475
   27.620    1978.000      44.475
   27.640    2210.000      47.011
   27.660    2468.000      49.679
   27.680    2592.000      50.912
   27.700    2816.000      53.066
   27.720    2981.000      54.599
   27.740    2949.000      54.305
   27.760    2840.000      53.292
   27.780    2570.000      50.695
   27.800    2323.000      48.198
   27.820    2082.000      45.629
   27.840    1838.000      42.872
   27.860    1746.000      41.785
   27.880    1708.000      41.328
   27.900    1638.000      40.472
   27.920    1587.000      39.837
   27.940    1607.000      40.087
   27.960    1564.000      39.547
   27.980    1597.000      39.962
   28.000    1564.000      39.547
   28.020    1526.000      39.064
   28.040    1541.000      39.256
   28.060    1609.000      40.112
   28.080    1632.000      40.398
   28.100    1702.000      41.255
   28.120    1792.000      42.332
   28.140    1760.000      41.952
   28.160    1814.000      42.591
   28.180    1791.000      42.320
   28.200    1697.000      41.195
   28.220    1653.000      40.657
   28.240    1566.000      39.573
   28.260    1470.000      38.341
   28.280    1501.000      38.743
   28.300    1457.000      38.171
   28.320    1445.000      38.013
   28.340    1479.000      38.458
   28.360    1424.000      37.736
   28.380    1499.000      38.717
   28.400    1486.000      38.549
   28.420    1468.000      38.314
   28.440    1475.000      38.406
   28.460    1402.000      37.443
   28.480    1444.000      38.000
   28.500    1418.000      37.656
   28.520    1407.000      37.510
   28.540    1448.000      38.053
   28.560    1472.000      38.367
   28.580    1422.000      37.709
   28.600    1398.000      37.390
   28.620    1443.000      37.987
   28.640    1460.000      38.210
   28.660    1425.000      37.749
   28.680    1410.000      37.550
   28.700    1379.000      37.135
   28.720    1439.000      37.934
   28.740    1420.000      37.683
   28.760    1522.000      39.013
   28.780    1501.000      38.743
   28.800    1493.000      38.639
   28.820    1476.000      38.419
   28.840    1484.000      38.523
   28.860    1478.000      38.445
   28.880    1506.000      38.807
   28.900    1472.000      38.367
   28.920    1547.000      39.332
   28.940    1615.000      40.187
   28.960    1788.000      42.285
   28.980    1899.000      43.578
   29.000    2142.000      46.282
   29.020    2430.000      49.295
   29.040    2953.000      54.342
   29.060    3598.000      59.983
   29.080    4415.000      66.445
   29.100    5573.000      74.653
   29.120    6541.000      80.876
   29.140    7580.000      87.063
   29.160    7951.000      89.168
   29.180    7822.000      88.442
   29.200    7195.000      84.823
   29.220    6081.000      77.981
   29.240    4771.000      69.072
   29.260    3774.000      61.433
   29.280    2950.000      54.314
   29.300    2379.000      48.775
   29.320    2028.000      45.033
   29.340    1781.000      42.202
   29.360    1682.000      41.012
   29.380    1576.000      39.699
   29.400    1500.000      38.730
   29.420    1475.000      38.406
   29.440    1481.000      38.484
   29.460    1421.000      37.696
   29.480    1371.000      37.027
   29.500    1415.000      37.616
   29.520    1394.000      37.336
   29.540    1465.000      38.275
   29.560    1387.000      37.242
   29.580    1341.000      36.620
   29.600    1359.000      36.865
   29.620    1341.000      36.620
   29.640    1339.000      36.592
   29.660    1370.000      37.014
   29.680    1376.000      37.094
   29.700    1296.000      36.000
   29.720    1305.000      36.125
   29.740    1330.000      36.469
   29.760    1305.000      36.125
   29.780    1305.000      36.125
   29.800    1313.000      36.235
   29.820    1298.000      36.028
   29.840    1319.000      36.318
   29.860    1328.000      36.442
   29.880    1354.000      36.797
   29.900    1352.000      36.770
   29.920    1301.000      36.069
   29.940    1354.000      36.797
   29.960    1369.000      37.000
   29.980    1380.000      37.148
   30.000    1273.000      35.679
   30.020    1342.000      36.633
   30.040    1272.000      35.665
   30.060    1279.000      35.763
   30.080    1314.000      36.249
   30.100    1303.000      36.097
   30.120    1261.000      35.511
   30.140    1288.000      35.889
   30.160    1252.000      35.384
   30.180    1342.000      36.633
   30.200    1293.000      35.958
   30.220    1364.000      36.932
   30.240    1288.000      35.889
   30.260    1331.000      36.483
   30.280    1366.000      36.959
   30.300    1308.000      36.166
   30.320    1278.000      35.749
   30.340    1368.000      36.986
   30.360    1388.000      37.256
   30.380    1359.000      36.865
   30.400    1366.000      36.959
   30.420    1320.000      36.332
   30.440    1382.000      37.175
   30.460    1354.000      36.797
   30.480    1309.000      36.180
   30.500    1363.000      36.919
   30.520    1496.000      38.678
   30.540    1501.000      38.743
   30.560    1613.000      40.162
   30.580    1781.000      42.202
   30.600    2027.000      45.022
   30.620    2365.000      48.631
   30.640    2780.000      52.726
   30.660    3020.000      54.955
   30.680    3431.000      58.575
   30.700    3547.000      59.557
   30.720    3615.000      60.125
   30.740    3227.000      56.807
   30.760    2861.000      53.488
   30.780    2488.000      49.880
   30.800    2087.000      45.684
   30.820    1805.000      42.485
   30.840    1701.000      41.243
   30.860    1496.000      38.678
   30.880    1391.000      37.296
   30.900    1357.000      36.837
   30.920    1267.000      35.595
   30.940    1295.000      35.986
   30.960    1274.000      35.693
   30.980    1298.000      36.028
   31.000    1271.000      35.651
   31.020    1269.000      35.623
   31.040    1274.000      35.693
   31.060    1251.000      35.369
   31.080    1279.000      35.763
   31.100    1251.000      35.369
   31.120    1232.000      35.100
   31.140    1209.000      34.771
   31.160    1215.000      34.857
   31.180    1229.000      35.057
   31.200    1212.000      34.814
   31.220    1241.000      35.228
   31.240    1191.000      34.511
   31.260    1170.000      34.205
   31.280    1233.000      35.114
   31.300    1212.000      34.814
   31.320    1159.000      34.044
   31.340    1233.000      35.114
   31.360    1182.000      34.380
   31.380    1174.000      34.264
   31.400    1173.000      34.249
   31.420    1203.000      34.684
   31.440    1172.000      34.234
   31.460    1191.000      34.511
   31.480    1200.000      34.641
   31.500    1208.000      34.756
   31.520    1161.000      34.073
   31.540    1204.000      34.699
   31.560    1206.000      34.728
   31.580    1217.000      34.886
   31.600    1183.000      34.395
   31.620    1211.000      34.799
   31.640    1183.000      34.395
   31.660    1143.000      33.808
   31.680    1159.000      34.044
   31.700    1201.000      34.655
   31.720    1171.000      34.220
   31.740    1204.000      34.699
   31.760    1188.000      34.467
   31.780    1236.000      35.157
   31.800    1087.000      32.970
   31.820    1225.000      35.000
   31.840    1214.000      34.843
   31.860    1187.000      34.453
   31.880    1195.000      34.569
   31.900    1182.000      34.380
   31.920    1171.000      34.220
   31.940    1164.000      34.117
   31.960    1211.000      34.799
   31.980    1179.000      34.337
   32.000    1171.000      34.220
   32.020    1173.000      34.249
   32.040    1146.000      33.853
   32.060    1170.000      34.205
   32.080    1153.000      33.956
   32.100    1138.000      33.734
   32.120    1172.000      34.234
   32.140    1153.000      33.956
   32.160    1197.000      34.598
   32.180    1181.000      34.366
   32.200    1185.000      34.424
   32.220    1166.000      34.147
   32.240    1105.000      33.242
   32.260    1152.000      33.941
   32.280    1098.000      33.136
   32.300    1161.000      34.073
   32.320    1141.000      33.779
   32.340    1190.000      34.496
   32.360    1158.000      34.029
   32.380    1142.000      33.793
   32.400    1213.000      34.828
   32.420    1125.000      33.541
   32.440    1158.000      34.029
   32.460    1179.000      34.337
   32.480    1187.000      34.453
   32.500    1167.000      34.161
   32.520    1148.000      33.882
   32.540    1170.000      34.205
   32.560    1147.000      33.867
   32.580    1137.000      33.719
   32.600    1201.000      34.655
   32.620    1121.000      33.481
   32.640    1155.000      33.985
   32.660    1132.000      33.645
   32.680    1158.000      34.029
   32.700    1197.000      34.598
   32.720    1183.000      34.395
   32.740    1151.000      33.926
   32.760    1124.000      33.526
   32.780    1108.000      33.287
   32.800    1108.000      33.287
   32.820    1168.000      34.176
   32.840    1125.000      33.541
   32.860    1142.000      33.793
   32.880    1119.000      33.451
   32.900    1170.000      34.205
   32.920    1134.000      33.675
   32.940    1115.000      33.392
   32.960    1129.000      33.601
   32.980    1212.000      34.814
   33.000    1127.000      33.571
   33.020    1130.000      33.615
   33.040    1163.000      34.103
   33.060    1108.000      33.287
   33.080    1154.000      33.971
   33.100    1129.000      33.601
   33.120    1149.000      33.897
   33.140    1144.000      33.823
   33.160    1150.000      33.912
   33.180    1148.000      33.882
   33.200    1131.000      33.630
   33.220    1195.000      34.569
   33.240    1191.000      34.511
   33.260    1229.000      35.057
   33.280    1223.000      34.971
   33.300    1329.000      36.455
   33.320    1365.000      36.946
   33.340    1431.000      37.829
   33.360    1562.000      39.522
   33.380    1809.000      42.532
   33.400    2136.000      46.217
   33.420    2540.000      50.398
   33.440    3344.000      57.827
   33.460    4169.000      64.568
   33.480    5261.000      72.533
   33.500    6628.000      81.413
   33.520    8152.000      90.288
   33.540    8990.000      94.816
   33.560    9565.000      97.801
   33.580    9384.000      96.871
   33.600    8625.000      92.871
   33.620    7314.000      85.522
   33.640    5991.000      77.402
   33.660    4626.000      68.015
   33.680    3614.000      60.117
   33.700    2950.000      54.314
   33.720    2499.000      49.990
   33.740    2193.000      46.829
   33.760    2037.000      45.133
   33.780    1943.000      44.079
   33.800    1826.000      42.732
   33.820    1723.000      41.509
   33.840    1644.000      40.546
   33.860    1545.000      39.306
   33.880    1402.000      37.443
   33.900    1429.000      37.802
   33.920    1414.000      37.603
   33.940    1475.000      38.406
   33.960    1553.000      39.408
   33.980    1675.000      40.927
   34.000    1982.000      44.520
   34.020    2359.000      48.570
   34.040    2860.000      53.479
   34.060    3721.000      61.000
   34.080    4722.000      68.717
   34.100    6013.000      77.544
   34.120    7222.000      84.982
   34.140    8070.000      89.833
   34.160    8418.000      91.750
   34.180    8317.000      91.198
   34.200    7473.000      86.447
   34.220    6221.000      78.873
   34.240    4873.000      69.807
   34.260    3816.000      61.774
   34.280    2886.000      53.722
   34.300    2303.000      47.990
   34.320    1887.000      43.440
   34.340    1574.000      39.674
   34.360    1408.000      37.523
   34.380    1337.000      36.565
   34.400    1217.000      34.886
   34.420    1163.000      34.103
   34.440    1196.000      34.583
   34.460    1158.000      34.029
   34.480    1150.000      33.912
   34.500    1153.000      33.956
   34.520    1148.000      33.882
   34.540    1191.000      34.511
   34.560    1245.000      35.285
   34.580    1339.000      36.592
   34.600    1455.000      38.144
   34.620    1584.000      39.799
   34.640    1807.000      42.509
   34.660    1987.000      44.576
   34.680    2138.000      46.239
   34.700    2164.000      46.519
   34.720    2143.000      46.293
   34.740    2048.000      45.255
   34.760    1898.000      43.566
   34.780    1769.000      42.059
   34.800    1647.000      40.583
   34.820    1609.000      40.112
   34.840    1644.000      40.546
   34.860    1785.000      42.249
   34.880    1959.000      44.261
   34.900    2251.000      47.445
   34.920    2558.000      50.577
   34.940    2831.000      53.207
   34.960    2916.000      54.000
   34.980    2889.000      53.749
   35.000    2701.000      51.971
   35.020    2375.000      48.734
   35.040    2138.000      46.239
   35.060    1944.000      44.091
   35.080    1859.000      43.116
   35.100    1797.000      42.391
   35.120    1849.000      43.000
   35.140    2112.000      45.957
   35.160    2430.000      49.295
   35.180    2747.000      52.412
   35.200    3136.000      56.000
   35.220    3360.000      57.966
   35.240    3331.000      57.715
   35.260    3225.000      56.789
   35.280    3005.000      54.818
   35.300    2583.000      50.823
   35.320    2303.000      47.990
   35.340    2036.000      45.122
   35.360    1957.000      44.238
   35.380    1902.000      43.612
   35.400    1907.000      43.669
   35.420    1784.000      42.237
   35.440    1732.000      41.617
   35.460    1644.000      40.546
   35.480    1476.000      38.419
   35.500    1375.000      37.081
   35.520    1254.000      35.412
   35.540    1140.000      33.764
   35.560    1064.000      32.619
   35.580    1019.000      31.922
   35.600    1002.000      31.654
   35.620     978.000      31.273
   35.640     966.000      31.081
   35.660     948.000      30.790
   35.680     959.000      30.968
   35.700     945.000      30.741
   35.720     937.000      30.610
   35.740     960.000      30.984
   35.760     928.000      30.463
   35.780     957.000      30.935
   35.800     948.000      30.790
   35.820    1014.000      31.843
   35.840    1027.000      32.047
   35.860    1032.000      32.125
   35.880    1041.000      32.265
   35.900    1003.000      31.670
   35.920    1024.000      32.000
   35.940    1005.000      31.702
   35.960     948.000      30.790
   35.980     923.000      30.381
   36.000     921.000      30.348
   36.020     900.000      30.000
   36.040     884.000      29.732
   36.060     916.000      30.265
   36.080     895.000      29.917
   36.100     935.000      30.578
   36.120     959.000      30.968
   36.140    1008.000      31.749
   36.160    1021.000      31.953
   36.180    1091.000      33.030
   36.200    1125.000      33.541
   36.220    1173.000      34.249
   36.240    1175.000      34.278
   36.260    1156.000      34.000
   36.280    1117.000      33.422
   36.300    1026.000      32.031
   36.320     988.000      31.432
   36.340     941.000      30.676
   36.360     953.000      30.871
   36.380     906.000      30.100
   36.400     882.000      29.698
   36.420     884.000      29.732
   36.440     872.000      29.530
   36.460     859.000      29.309
   36.480     878.000      29.631
   36.500     870.000      29.496
   36.520     868.000      29.462
   36.540     873.000      29.547
   36.560     859.000      29.309
   36.580     892.000      29.866
   36.600     859.000      29.309
   36.620     865.000      29.411
   36.640     846.000      29.086
   36.660     861.000      29.343
   36.680     844.000      29.052
   36.700     840.000      28.983
   36.720     865.000      29.411
   36.740     879.000      29.648
   36.760     875.000      29.580
   36.780     882.000      29.698
   36.800     832.000      28.844
   36.820     866.000      29.428
   36.840     881.000      29.682
   36.860     868.000      29.462
   36.880     852.000      29.189
   36.900     886.000      29.766
   36.920     856.000      29.257
   36.940     881.000      29.682
   36.960     845.000      29.069
   36.980     836.000      28.914
   37.000     859.000      29.309
   37.020     820.000      28.636
   37.040     859.000      29.309
   37.060     815.000      28.548
   37.080     788.000      28.071
   37.100     840.000      28.983
   37.120     861.000      29.343
   37.140     821.000      28.653
   37.160     817.000      28.583
   37.180     832.000      28.844
   37.200     819.000      28.618
   37.220     804.000      28.355
   37.240     823.000      28.688
   37.260     795.000      28.196
   37.280     790.000      28.107
   37.300     772.000      27.785
   37.320     799.000      28.267
   37.340     821.000      28.653
   37.360     821.000      28.653
   37.380     806.000      28.390
   37.400     786.000      28.036
   37.420     791.000      28.125
   37.440     792.000      28.142
   37.460     794.000      28.178
   37.480     779.000      27.911
   37.500     784.000      28.000
   37.520     802.000      28.320
   37.540     776.000      27.857
   37.560     802.000      28.320
   37.580     781.000      27.946
   37.600     795.000      28.196
   37.620     787.000      28.054
   37.640     810.000      28.460
   37.660     864.000      29.394
   37.680     845.000      29.069
   37.700     877.000      29.614
   37.720     899.000      29.983
   37.740     924.000      30.397
   37.760     954.000      30.887
   37.780     914.000      30.232
   37.800     864.000      29.394
   37.820     887.000      29.783
   37.840     895.000      29.917
   37.860     899.000      29.983
   37.880     879.000      29.648
   37.900     957.000      30.935
   37.920     964.000      31.048
   37.940    1087.000      32.970
   37.960    1197.000      34.598
   37.980    1332.000      36.497
   38.000    1538.000      39.217
   38.020    1751.000      41.845
   38.040    1899.000      43.578
   38.060    1960.000      44.272
   38.080    2064.000      45.431
   38.100    2040.000      45.166
   38.120    2096.000      45.782
   38.140    1961.000      44.283
   38.160    1849.000      43.000
   38.180    1713.000      41.388
   38.200    1561.000      39.509
   38.220    1492.000      38.626
   38.240    1349.000      36.729
   38.260    1254.000      35.412
   38.280    1140.000      33.764
   38.300    1070.000      32.711
   38.320    1021.000      31.953
   38.340    1013.000      31.828
   38.360     955.000      30.903
   38.380     957.000      30.935
   38.400     907.000      30.116
   38.420     829.000      28.792
   38.440     866.000      29.428
   38.460     858.000      29.292
   38.480     823.000      28.688
   38.500     852.000      29.189
   38.520     878.000      29.631
   38.540     862.000      29.360
   38.560     891.000      29.850
   38.580     971.000      31.161
   38.600    1052.000      32.435
   38.620    1085.000      32.939
   38.640    1138.000      33.734
   38.660    1181.000      34.366
   38.680    1174.000      34.264
   38.700    1119.000      33.451
   38.720    1035.000      32.171
   38.740     973.000      31.193
   38.760     948.000      30.790
   38.780     881.000      29.682
   38.800     818.000      28.601
   38.820     808.000      28.425
   38.840     759.000      27.550
   38.860     758.000      27.532
   38.880     767.000      27.695
   38.900     718.000      26.796
   38.920     749.000      27.368
   38.940     751.000      27.404
   38.960     713.000      26.702
   38.980     717.000      26.777
   39.000     709.000      26.627
   39.020     720.000      26.833
   39.040     711.000      26.665
   39.060     687.000      26.211
   39.080     736.000      27.129
   39.100     709.000      26.627
   39.120     698.000      26.420
   39.140     725.000      26.926
   39.160     739.000      27.185
   39.180     722.000      26.870
   39.200     686.000      26.192
   39.220     710.000      26.646
   39.240     745.000      27.295
   39.260     693.000      26.325
   39.280     718.000      26.796
   39.300     707.000      26.589
   39.320     721.000      26.851
   39.340     722.000      26.870
   39.360     731.000      27.037
   39.380     697.000      26.401
   39.400     734.000      27.092
   39.420     719.000      26.814
   39.440     741.000      27.221
   39.460     748.000      27.350
   39.480     730.000      27.019
   39.500     758.000      27.532
   39.520     774.000      27.821
   39.540     777.000      27.875
   39.560     819.000      28.618
   39.580     827.000      28.758
   39.600     817.000      28.583
   39.620     832.000      28.844
   39.640     784.000      28.000
   39.660     753.000      27.441
   39.680     747.000      27.331
   39.700     754.000      27.459
   39.720     753.000      27.441
   39.740     748.000      27.350
   39.760     725.000      26.926
   39.780     687.000      26.211
   39.800     713.000      26.702
   39.820     688.000      26.230
   39.840     709.000      26.627
   39.860     690.000      26.268
   39.880     698.000      26.420
   39.900     720.000      26.833
   39.920     682.000      26.115
   39.940     689.000      26.249
   39.960     728.000      26.981
   39.980     659.000      25.671
   40.000     674.000      25.962
   40.020     690.000      26.268
   40.040     678.000      26.038
   40.060     731.000      27.037
   40.080     697.000      26.401
   40.100     693.000      26.325
   40.120     696.000      26.382
   40.140     697.000      26.401
   40.160     690.000      26.268
   40.180     684.000      26.153
   40.200     709.000      26.627
   40.220     717.000      26.777
   40.240     718.000      26.796
   40.260     714.000      26.721
   40.280     741.000      27.221
   40.300     773.000      27.803
   40.320     850.000      29.155
   40.340     965.000      31.064
   40.360    1152.000      33.941
   40.380    1283.000      35.819
   40.400    1419.000      37.670
   40.420    1658.000      40.719
   40.440    1705.000      41.292
   40.460    1723.000      41.509
   40.480    1705.000      41.292
   40.500    1484.000      38.523
   40.520    1370.000      37.014
   40.540    1159.000      34.044
   40.560    1037.000      32.202
   40.580     877.000      29.614
   40.600     795.000      28.196
   40.620     792.000      28.142
   40.640     733.000      27.074
   40.660     713.000      26.702
   40.680     711.000      26.665
   40.700     681.000      26.096
   40.720     703.000      26.514
   40.740     683.000      26.134
   40.760     659.000      25.671
   40.780     644.000      25.377
   40.800     656.000      25.612
   40.820     653.000      25.554
   40.840     656.000      25.612
   40.860     646.000      25.417
   40.880     636.000      25.219
   40.900     647.000      25.436
   40.920     642.000      25.338
   40.940     667.000      25.826
   40.960     643.000      25.357
   40.980     644.000      25.377
   41.000     635.000      25.199
   41.020     642.000      25.338
   41.040     639.000      25.278
   41.060     645.000      25.397
   41.080     636.000      25.219
   41.100     643.000      25.357
   41.120     637.000      25.239
   41.140     656.000      25.612
   41.160     639.000      25.278
   41.180     630.000      25.100
   41.200     653.000      25.554
   41.220     652.000      25.534
   41.240     638.000      25.259
   41.260     640.000      25.298
   41.280     620.000      24.900
   41.300     642.000      25.338
   41.320     686.000      26.192
   41.340     628.000      25.060
   41.360     650.000      25.495
   41.380     639.000      25.278
   41.400     634.000      25.179
   41.420     650.000      25.495
   41.440     667.000      25.826
   41.460     650.000      25.495
   41.480     669.000      25.865
   41.500     618.000      24.860
   41.520     640.000      25.298
   41.540     653.000      25.554
   41.560     621.000      24.920
   41.580     626.000      25.020
   41.600     621.000      24.920
   41.620     645.000      25.397
   41.640     627.000      25.040
   41.660     641.000      25.318
   41.680     640.000      25.298
   41.700     647.000      25.436
   41.720     643.000      25.357
   41.740     633.000      25.159
   41.760     611.000      24.718
   41.780     615.000      24.799
   41.800     623.000      24.960
   41.820     600.000      24.495
   41.840     626.000      25.020
   41.860     637.000      25.239
   41.880     605.000      24.597
   41.900     622.000      24.940
   41.920     608.000      24.658
   41.940     613.000      24.759
   41.960     617.000      24.839
   41.980     610.000      24.698
   42.000     618.000      24.860
   42.020     639.000      25.278
   42.040     607.000      24.637
   42.060     603.000      24.556
   42.080     626.000      25.020
   42.100     617.000      24.839
   42.120     621.000      24.920
   42.140     633.000      25.159
   42.160     641.000      25.318
   42.180     631.000      25.120
   42.200     656.000      25.612
   42.220     682.000      26.115
   42.240     672.000      25.923
   42.260     647.000      25.436
   42.280     642.000      25.338
   42.300     660.000      25.690
   42.320     661.000      25.710
   42.340     640.000      25.298
   42.360     652.000      25.534
   42.380     631.000      25.120
   42.400     647.000      25.436
   42.420     608.000      24.658
   42.440     657.000      25.632
   42.460     648.000      25.456
   42.480     638.000      25.259
   42.500     615.000      24.799
   42.520     673.000      25.942
   42.540     679.000      26.058
   42.560     679.000      26.058
   42.580     707.000      26.589
   42.600     708.000      26.608
   42.620     748.000      27.350
   42.640     776.000      27.857
   42.660     834.000      28.879
   42.680     781.000      27.946
   42.700     798.000      28.249
   42.720     838.000      28.948
   42.740     857.000      29.275
   42.760     886.000      29.766
   42.780     951.000      30.838
   42.800     956.000      30.919
   42.820    1035.000      32.171
   42.840     957.000      30.935
   42.860     942.000      30.692
   42.880     865.000      29.411
   42.900     811.000      28.478
   42.920     741.000      27.221
   42.940     730.000      27.019
   42.960     713.000      26.702
   42.980     676.000      26.000
   43.000     661.000      25.710
   43.020     638.000      25.259
   43.040     644.000      25.377
   43.060     642.000      25.338
   43.080     668.000      25.846
   43.100     654.000      25.573
   43.120     651.000      25.515
   43.140     659.000      25.671
   43.160     679.000      26.058
   43.180     695.000      26.363
   43.200     664.000      25.768
   43.220     681.000      26.096
   43.240     669.000      25.865
   43.260     646.000      25.417
   43.280     648.000      25.456
   43.300     690.000      26.268
   43.320     719.000      26.814
   43.340     728.000      26.981
   43.360     762.000      27.604
   43.380     765.000      27.659
   43.400     760.000      27.568
   43.420     783.000      27.982
   43.440     721.000      26.851
   43.460     761.000      27.586
   43.480     711.000      26.665
   43.500     699.000      26.439
   43.520     713.000      26.702
   43.540     717.000      26.777
   43.560     744.000      27.276
   43.580     771.000      27.767
   43.600     821.000      28.653
   43.620     867.000      29.445
   43.640     922.000      30.364
   43.660     952.000      30.854
   43.680     940.000      30.659
   43.700    1006.000      31.718
   43.720    1087.000      32.970
   43.740    1087.000      32.970
   43.760    1075.000      32.787
   43.780    1091.000      33.030
   43.800    1110.000      33.317
   43.820    1109.000      33.302
   43.840    1148.000      33.882
   43.860    1069.000      32.696
   43.880    1054.000      32.465
   43.900    1097.000      33.121
   43.920    1173.000      34.249
   43.940    1240.000      35.214
   43.960    1368.000      36.986
   43.980    1552.000      39.395
   44.000    1518.000      38.962
   44.020    1535.000      39.179
   44.040    1430.000      37.815
   44.060    1269.000      35.623
   44.080    1112.000      33.347
   44.100     974.000      31.209
   44.120     889.000      29.816
   44.140     758.000      27.532
   44.160     679.000      26.058
   44.180     625.000      25.000
   44.200     645.000      25.397
   44.220     618.000      24.860
   44.240     618.000      24.860
   44.260     576.000      24.000
   44.280     567.000      23.812
   44.300     558.000      23.622
   44.320     585.000      24.187
   44.340     583.000      24.145
   44.360     574.000      23.958
   44.380     566.000      23.791
   44.400     594.000      24.372
   44.420     576.000      24.000
   44.440     559.000      23.643
   44.460     581.000      24.104
   44.480     552.000      23.495
   44.500     575.000      23.979
   44.520     606.000      24.617
   44.540     616.000      24.819
   44.560     605.000      24.597
   44.580     618.000      24.860
   44.600     619.000      24.880
   44.620     649.000      25.475
   44.640     656.000      25.612
   44.660     696.000      26.382
   44.680     694.000      26.344
   44.700     728.000      26.981
   44.720     768.000      27.713
   44.740     742.000      27.240
   44.760     785.000      28.018
   44.780     772.000      27.785
   44.800     753.000      27.441
   44.820     744.000      27.276
   44.840     715.000      26.739
   44.860     692.000      26.306
   44.880     666.000      25.807
   44.900     654.000      25.573
   44.920     598.000      24.454
   44.940     579.000      24.062
   44.960     577.000      24.021
   44.980     550.000      23.452
   45.000     574.000      23.958
   45.020     529.000      23.000
   45.040     576.000      24.000
   45.060     554.000      23.537
   45.080     549.000      23.431
   45.100     567.000      23.812
   45.120     582.000      24.125
   45.140     564.000      23.749
   45.160     554.000      23.537
   45.180     548.000      23.409
   45.200     563.000      23.728
   45.220     564.000      23.749
   45.240     530.000      23.022
   45.260     540.000      23.238
   45.280     574.000      23.958
   45.300     560.000      23.664
   45.320     512.000      22.627
   45.340     532.000      23.065
   45.360     572.000      23.917
   45.380     550.000      23.452
   45.400     580.000      24.083
   45.420     577.000      24.021
   45.440     589.000      24.269
   45.460     584.000      24.166
   45.480     560.000      23.664
   45.500     600.000      24.495
   45.520     634.000      25.179
   45.540     642.000      25.338
   45.560     668.000      25.846
   45.580     710.000      26.646
   45.600     805.000      28.373
   45.620     831.000      28.827
   45.640     893.000      29.883
   45.660     890.000      29.833
   45.680     926.000      30.430
   45.700     889.000      29.816
   45.720     886.000      29.766
   45.740     831.000      28.827
   45.760     753.000      27.441
   45.780     753.000      27.441
   45.800     689.000      26.249
   45.820     670.000      25.884
   45.840     664.000      25.768
   45.860     639.000      25.278
   45.880     624.000      24.980
   45.900     625.000      25.000
   45.920     621.000      24.920
   45.940     628.000      25.060
   45.960     639.000      25.278
   45.980     610.000      24.698
   46.000     594.000      24.372
   46.020     611.000      24.718
   46.040     550.000      23.452
   46.060     584.000      24.166
   46.080     531.000      23.043
   46.100     585.000      24.187
   46.120     560.000      23.664
   46.140     575.000      23.979
   46.160     564.000      23.749
   46.180     577.000      24.021
   46.200     576.000      24.000
   46.220     589.000      24.269
   46.240     587.000      24.228
   46.260     613.000      24.759
   46.280     645.000      25.397
   46.300     710.000      26.646
   46.320     746.000      27.313
   46.340     887.000      29.783
   46.360     988.000      31.432
   46.380    1147.000      33.867
   46.400    1353.000      36.783
   46.420    1595.000      39.937
   46.440    1748.000      41.809
   46.460    1890.000      43.474
   46.480    1814.000      42.591
   46.500    1735.000      41.653
   46.520    1606.000      40.075
   46.540    1419.000      37.670
   46.560    1199.000      34.627
   46.580    1088.000      32.985
   46.600     951.000      30.838
   46.620     837.000      28.931
   46.640     776.000      27.857
   46.660     713.000      26.702
   46.680     715.000      26.739
   46.700     641.000      25.318
   46.720     655.000      25.593
   46.740     634.000      25.179
   46.760     614.000      24.779
   46.780     623.000      24.960
   46.800     621.000      24.920
   46.820     612.000      24.739
   46.840     615.000      24.799
   46.860     600.000      24.495
   46.880     640.000      25.298
   46.900     658.000      25.652
   46.920     679.000      26.058
   46.940     730.000      27.019
   46.960     767.000      27.695
   46.980     817.000      28.583
   47.000     922.000      30.364
   47.020     965.000      31.064
   47.040    1004.000      31.686
   47.060    1060.000      32.558
   47.080    1027.000      32.047
   47.100     963.000      31.032
   47.120     950.000      30.822
   47.140     842.000      29.017
   47.160     760.000      27.568
   47.180     712.000      26.683
   47.200     645.000      25.397
   47.220     606.000      24.617
   47.240     581.000      24.104
   47.260     577.000      24.021
   47.280     572.000      23.917
   47.300     549.000      23.431
   47.320     545.000      23.345
   47.340     503.000      22.428
   47.360     538.000      23.195
   47.380     535.000      23.130
   47.400     505.000      22.472
   47.420     533.000      23.087
   47.440     515.000      22.694
   47.460     522.000      22.847
   47.480     534.000      23.108
   47.500     531.000      23.043
   47.520     506.000      22.494
   47.540     508.000      22.539
   47.560     526.000      22.935
   47.580     505.000      22.472
   47.600     509.000      22.561
   47.620     512.000      22.627
   47.640     495.000      22.249
   47.660     525.000      22.913
   47.680     514.000      22.672
   47.700     516.000      22.716
   47.720     499.000      22.338
   47.740     504.000      22.450
   47.760     510.000      22.583
   47.780     508.000      22.539
   47.800     489.000      22.113
   47.820     505.000      22.472
   47.840     518.000      22.760
   47.860     527.000      22.956
   47.880     516.000      22.716
   47.900     535.000      23.130
   47.920     513.000      22.650
   47.940     540.000      23.238
   47.960     521.000      22.825
   47.980     529.000      23.000
   48.000     503.000      22.428
   48.020     502.000      22.405
   48.040     509.000      22.561
   48.060     501.000      22.383
   48.080     515.000      22.694
   48.100     525.000      22.913
   48.120     516.000      22.716
   48.140     554.000      23.537
   48.160     514.000      22.672
   48.180     552.000      23.495
   48.200     577.000      24.021
   48.220     571.000      23.896
   48.240     579.000      24.062
   48.260     590.000      24.290
   48.280     614.000      24.779
   48.300     614.000      24.779
   48.320     636.000      25.219
   48.340     591.000      24.310
   48.360     629.000      25.080
   48.380     613.000      24.759
   48.400     649.000      25.475
   48.420     634.000      25.179
   48.440     698.000      26.420
   48.460     719.000      26.814
   48.480     768.000      27.713
   48.500     804.000      28.355
   48.520     826.000      28.740
   48.540     887.000      29.783
   48.560     942.000      30.692
   48.580     921.000      30.348
   48.600     941.000      30.676
   48.620     901.000      30.017
   48.640     870.000      29.496
   48.660     788.000      28.071
   48.680     729.000      27.000
   48.700     673.000      25.942
   48.720     683.000      26.134
   48.740     645.000      25.397
   48.760     630.000      25.100
   48.780     609.000      24.678
   48.800     633.000      25.159
   48.820     671.000      25.904
   48.840     714.000      26.721
   48.860     761.000      27.586
   48.880     784.000      28.000
   48.900     826.000      28.740
   48.920     844.000      29.052
   48.940     859.000      29.309
   48.960     857.000      29.275
   48.980     853.000      29.206
   49.000     851.000      29.172
   49.020     859.000      29.309
   49.040     852.000      29.189
   49.060     774.000      27.821
   49.080     743.000      27.258
   49.100     691.000      26.287
   49.120     665.000      25.788
   49.140     645.000      25.397
   49.160     590.000      24.290
   49.180     598.000      24.454
   49.200     562.000      23.707
   49.220     560.000      23.664
   49.240     550.000      23.452
   49.260     524.000      22.891
   49.280     514.000      22.672
   49.300     500.000      22.361
   49.320     515.000      22.694
   49.340     527.000      22.956
   49.360     530.000      23.022
   49.380     520.000      22.804
   49.400     528.000      22.978
   49.420     561.000      23.685
   49.440     539.000      23.216
   49.460     532.000      23.065
   49.480     527.000      22.956
   49.500     528.000      22.978
   49.520     514.000      22.672
   49.540     530.000      23.022
   49.560     509.000      22.561
   49.580     506.000      22.494
   49.600     517.000      22.738
   49.620     523.000      22.869
   49.640     560.000      23.664
   49.660     548.000      23.409
   49.680     595.000      24.393
   49.700     609.000      24.678
   49.720     678.000      26.038
   49.740     711.000      26.665
   49.760     735.000      27.111
   49.780     799.000      28.267
   49.800     806.000      28.390
   49.820     849.000      29.138
   49.840     830.000      28.810
   49.860     786.000      28.036
   49.880     800.000      28.284
   49.900     750.000      27.386
   49.920     759.000      27.550
   49.940     722.000      26.870
   49.960     704.000      26.533
   49.980     698.000      26.420
   50.000     692.000      26.306
   50.020     688.000      26.230
   50.040     667.000      25.826
   50.060     685.000      26.173
   50.080     649.000      25.475
   50.100     630.000      25.100
   50.120     623.000      24.960
   50.140     673.000      25.942
   50.160     605.000      24.597
   50.180     554.000      23.537
   50.200     560.000      23.664
   50.220     588.000      24.249
   50.240     531.000      23.043
   50.260     545.000      23.345
   50.280     508.000      22.539
   50.300     544.000      23.324
   50.320     566.000      23.791
   50.340     541.000      23.259
   50.360     543.000      23.302
   50.380     572.000      23.917
   50.400     563.000      23.728
   50.420     593.000      24.352
   50.440     602.000      24.536
   50.460     670.000      25.884
   50.480     749.000      27.368
   50.500     878.000      29.631
   50.520    1061.000      32.573
   50.540    1352.000      36.770
   50.560    1579.000      39.737
   50.580    1871.000      43.255
   50.600    2042.000      45.188
   50.620    2064.000      45.431
   50.640    2031.000      45.067
   50.660    1795.000      42.367
   50.680    1586.000      39.825
   50.700    1328.000      36.442
   50.720    1134.000      33.675
   50.740     962.000      31.016
   50.760     802.000      28.320
   50.780     711.000      26.665
   50.800     678.000      26.038
   50.820     612.000      24.739
   50.840     569.000      23.854
   50.860     553.000      23.516
   50.880     551.000      23.473
   50.900     538.000      23.195
   50.920     538.000      23.195
   50.940     533.000      23.087
   50.960     506.000      22.494
   50.980     525.000      22.913
   51.000     482.000      21.954
   51.020     478.000      21.863
   51.040     500.000      22.361
   51.060     494.000      22.226
   51.080     452.000      21.260
   51.100     481.000      21.932
   51.120     489.000      22.113
   51.140     502.000      22.405
   51.160     527.000      22.956
   51.180     540.000      23.238
   51.200     549.000      23.431
   51.220     580.000      24.083
   51.240     601.000      24.515
   51.260     582.000      24.125
   51.280     605.000      24.597
   51.300     572.000      23.917
   51.320     579.000      24.062
   51.340     551.000      23.473
   51.360     539.000      23.216
   51.380     531.000      23.043
   51.400     519.000      22.782
   51.420     493.000      22.204
   51.440     515.000      22.694
   51.460     516.000      22.716
   51.480     493.000      22.204
   51.500     474.000      21.772
   51.520     513.000      22.650
   51.540     494.000      22.226
   51.560     513.000      22.650
   51.580     490.000      22.136
   51.600     504.000      22.450
   51.620     502.000      22.405
   51.640     494.000      22.226
   51.660     484.000      22.000
   51.680     523.000      22.869
   51.700     498.000      22.316
   51.720     506.000      22.494
   51.740     526.000      22.935
   51.760     535.000      23.130
   51.780     566.000      23.791
   51.800     625.000      25.000
   51.820     661.000      25.710
   51.840     710.000      26.646
   51.860     724.000      26.907
   51.880     724.000      26.907
   51.900     748.000      27.350
   51.920     693.000      26.325
   51.940     685.000      26.173
   51.960     634.000      25.179
   51.980     610.000      24.698
   52.000     566.000      23.791
   52.020     561.000      23.685
   52.040     509.000      22.561
   52.060     488.000      22.091
   52.080     484.000      22.000
   52.100     472.000      21.726
   52.120     468.000      21.633
   52.140     476.000      21.817
   52.160     477.000      21.840
   52.180     479.000      21.886
   52.200     484.000      22.000
   52.220     474.000      21.772
   52.240     489.000      22.113
   52.260     480.000      21.909
   52.280     524.000      22.891
   52.300     521.000      22.825
   52.320     533.000      23.087
   52.340     533.000      23.087
   52.360     554.000      23.537
   52.380     567.000      23.812
   52.400     590.000      24.290
   52.420     590.000      24.290
   52.440     631.000      25.120
   52.460     660.000      25.690
   52.480     670.000      25.884
   52.500     742.000      27.240
   52.520     736.000      27.129
   52.540     735.000      27.111
   52.560     788.000      28.071
   52.580     770.000      27.749
   52.600     827.000      28.758
   52.620     784.000      28.000
   52.640     742.000      27.240
   52.660     712.000      26.683
   52.680     654.000      25.573
   52.700     624.000      24.980
   52.720     573.000      23.937
   52.740     550.000      23.452
   52.760     530.000      23.022
   52.780     515.000      22.694
   52.800     502.000      22.405
   52.820     491.000      22.159
   52.840     480.000      21.909
   52.860     469.000      21.656
   52.880     485.000      22.023
   52.900     507.000      22.517
   52.920     481.000      21.932
   52.940     510.000      22.583
   52.960     485.000      22.023
   52.980     452.000      21.260
   53.000     468.000      21.633
   53.020     469.000      21.656
   53.040     455.000      21.331
   53.060     479.000      21.886
   53.080     450.000      21.213
   53.100     456.000      21.354
   53.120     455.000      21.331
   53.140     480.000      21.909
   53.160     451.000      21.237
   53.180     453.000      21.284
   53.200     463.000      21.517
   53.220     471.000      21.703
   53.240     481.000      21.932
   53.260     464.000      21.541
   53.280     453.000      21.284
   53.300     485.000      22.023
   53.320     474.000      21.772
   53.340     450.000      21.213
   53.360     479.000      21.886
   53.380     471.000      21.703
   53.400     463.000      21.517
   53.420     500.000      22.361
   53.440     495.000      22.249
   53.460     517.000      22.738
   53.480     545.000      23.345
   53.500     552.000      23.495
   53.520     627.000      25.040
   53.540     705.000      26.552
   53.560     795.000      28.196
   53.580     867.000      29.445
   53.600     927.000      30.447
   53.620    1002.000      31.654
   53.640     994.000      31.528
   53.660     975.000      31.225
   53.680    1016.000      31.875
   53.700     926.000      30.430
   53.720     828.000      28.775
   53.740     789.000      28.089
   53.760     747.000      27.331
   53.780     677.000      26.019
   53.800     646.000      25.417
   53.820     626.000      25.020
   53.840     599.000      24.474
   53.860     594.000      24.372
   53.880     615.000      24.799
   53.900     576.000      24.000
   53.920     538.000      23.195
   53.940     558.000      23.622
   53.960     528.000      22.978
   53.980     524.000      22.891
   54.000     497.000      22.293
   54.020     478.000      21.863
   54.040     461.000      21.471
   54.060     472.000      21.726
   54.080     445.000      21.095
   54.100     462.000      21.494
   54.120     460.000      21.448
   54.140     480.000      21.909
   54.160     451.000      21.237
   54.180     477.000      21.840
   54.200     453.000      21.284
   54.220     447.000      21.142
   54.240     465.000      21.564
   54.260     467.000      21.610
   54.280     460.000      21.448
   54.300     445.000      21.095
   54.320     449.000      21.190
   54.340     461.000      21.471
   54.360     459.000      21.424
   54.380     465.000      21.564
   54.400     440.000      20.976
   54.420     425.000      20.616
   54.440     423.000      20.567
   54.460     418.000      20.445
   54.480     423.000      20.567
   54.500     417.000      20.421
   54.520     436.000      20.881
   54.540     427.000      20.664
   54.560     445.000      21.095
   54.580     441.000      21.000
   54.600     429.000      20.712
   54.620     443.000      21.048
   54.640     459.000      21.424
   54.660     436.000      20.881
   54.680     429.000      20.712
   54.700     448.000      21.166
   54.720     444.000      21.071
   54.740     455.000      21.331
   54.760     458.000      21.401
   54.780     466.000      21.587
   54.800     450.000      21.213
   54.820     447.000      21.142
   54.840     446.000      21.119
   54.860     467.000      21.610
   54.880     470.000      21.679
   54.900     492.000      22.181
   54.920     523.000      22.869
   54.940     560.000      23.664
   54.960     587.000      24.228
   54.980     640.000      25.298
   55.000     659.000      25.671
   55.020     795.000      28.196
   55.040     844.000      29.052
   55.060     920.000      30.332
   55.080    1007.000      31.733
   55.100    1090.000      33.015
   55.120    1177.000      34.307
   55.140    1165.000      34.132
   55.160    1246.000      35.299
   55.180    1262.000      35.525
   55.200    1230.000      35.071
   55.220    1238.000      35.185
   55.240    1216.000      34.871
   55.260    1122.000      33.496
   55.280    1103.000      33.211
   55.300    1035.000      32.171
   55.320     934.000      30.561
   55.340     831.000      28.827
   55.360     786.000      28.036
   55.380     724.000      26.907
   55.400     683.000      26.134
   55.420     666.000      25.807
   55.440     619.000      24.880
   55.460     589.000      24.269
   55.480     591.000      24.310
   55.500     592.000      24.331
   55.520     584.000      24.166
   55.540     597.000      24.434
   55.560     618.000      24.860
   55.580     616.000      24.819
   55.600     619.000      24.880
   55.620     602.000      24.536
   55.640     623.000      24.960
   55.660     597.000      24.434
   55.680     552.000      23.495
   55.700     551.000      23.473
   55.720     548.000      23.409
   55.740     520.000      22.804
   55.760     543.000      23.302
   55.780     506.000      22.494
   55.800     509.000      22.561
   55.820     526.000      22.935
   55.840     528.000      22.978
   55.860     521.000      22.825
   55.880     513.000      22.650
   55.900     499.000      22.338
   55.920     523.000      22.869
   55.940     531.000      23.043
   55.960     536.000      23.152
   55.980     555.000      23.558
   56.000     584.000      24.166
   56.020     605.000      24.597
   56.040     616.000      24.819
   56.060     600.000      24.495
   56.080     584.000      24.166
   56.100     577.000      24.021
   56.120     530.000      23.022
   56.140     513.000      22.650
   56.160     508.000      22.539
   56.180     506.000      22.494
   56.200     470.000      21.679
   56.220     464.000      21.541
   56.240     455.000      21.331
   56.260     428.000      20.688
   56.280     438.000      20.928
   56.300     426.000      20.640
   56.320     433.000      20.809
   56.340     414.000      20.347
   56.360     410.000      20.248
   56.380     438.000      20.928
   56.400     402.000      20.050
   56.420     428.000      20.688
   56.440     417.000      20.421
   56.460     440.000      20.976
   56.480     440.000      20.976
   56.500     449.000      21.190
   56.520     477.000      21.840
   56.540     512.000      22.627
   56.560     525.000      22.913
   56.580     517.000      22.738
   56.600     543.000      23.302
   56.620     584.000      24.166
   56.640     618.000      24.860
   56.660     656.000      25.612
   56.680     651.000      25.515
   56.700     688.000      26.230
   56.720     712.000      26.683
   56.740     733.000      27.074
   56.760     729.000      27.000
   56.780     699.000      26.439
   56.800     728.000      26.981
   56.820     684.000      26.153
   56.840     628.000      25.060
   56.860     596.000      24.413
   56.880     566.000      23.791
   56.900     539.000      23.216
   56.920     518.000      22.760
   56.940     494.000      22.226
   56.960     504.000      22.450
   56.980     478.000      21.863
   57.000     450.000      21.213
   57.020     447.000      21.142
   57.040     427.000      20.664
   57.060     445.000      21.095
   57.080     431.000      20.761
   57.100     436.000      20.881
   57.120     430.000      20.736
   57.140     456.000      21.354
   57.160     466.000      21.587
   57.180     452.000      21.260
   57.200     473.000      21.749
   57.220     455.000      21.331
   57.240     460.000      21.448
   57.260     469.000      21.656
   57.280     475.000      21.794
   57.300     474.000      21.772
   57.320     487.000      22.068
   57.340     482.000      21.954
   57.360     459.000      21.424
   57.380     474.000      21.772
   57.400     459.000      21.424
   57.420     456.000      21.354
   57.440     435.000      20.857
   57.460     432.000      20.785
   57.480     452.000      21.260
   57.500     428.000      20.688
   57.520     412.000      20.298
   57.540     444.000      21.071
   57.560     421.000      20.518
   57.580     437.000      20.905
   57.600     419.000      20.469
   57.620     425.000      20.616
   57.640     438.000      20.928
   57.660     406.000      20.149
   57.680     424.000      20.591
   57.700     400.000      20.000
   57.720     398.000      19.950
   57.740     413.000      20.322
   57.760     414.000      20.347
   57.780     400.000      20.000
   57.800     408.000      20.199
   57.820     386.000      19.647
   57.840     417.000      20.421
   57.860     448.000      21.166
   57.880     472.000      21.726
   57.900     485.000      22.023
   57.920     569.000      23.854
   57.940     612.000      24.739
   57.960     702.000      26.495
   57.980     803.000      28.337
   58.000     939.000      30.643
   58.020    1060.000      32.558
   58.040    1158.000      34.029
   58.060    1231.000      35.086
   58.080    1222.000      34.957
   58.100    1231.000      35.086
   58.120    1209.000      34.771
   58.140    1115.000      33.392
   58.160    1012.000      31.812
   58.180     904.000      30.067
   58.200     801.000      28.302
   58.220     759.000      27.550
   58.240     702.000      26.495
   58.260     622.000      24.940
   58.280     575.000      23.979
   58.300     555.000      23.558
   58.320     534.000      23.108
   58.340     482.000      21.954
   58.360     494.000      22.226
   58.380     461.000      21.471
   58.400     450.000      21.213
   58.420     440.000      20.976
   58.440     415.000      20.372
   58.460     388.000      19.698
   58.480     411.000      20.273
   58.500     390.000      19.748
   58.520     404.000      20.100
   58.540     382.000      19.545
   58.560     404.000      20.100
   58.580     395.000      19.875
   58.600     432.000      20.785
   58.620     404.000      20.100
   58.640     458.000      21.401
   58.660     443.000      21.048
   58.680     441.000      21.000
   58.700     439.000      20.952
   58.720     454.000      21.307
   58.740     415.000      20.372
   58.760     430.000      20.736
   58.780     429.000      20.712
   58.800     377.000      19.416
   58.820     400.000      20.000
   58.840     399.000      19.975
   58.860     369.000      19.209
   58.880     365.000      19.105
   58.900     382.000      19.545
   58.920     359.000      18.947
   58.940     378.000      19.442
   58.960     375.000      19.365
   58.980     371.000      19.261
   59.000     368.000      19.183
   59.020     330.000      18.166
   59.040     350.000      18.708
   59.060     347.000      18.628
   59.080     353.000      18.788
   59.100     387.000      19.672
   59.120     367.000      19.157
   59.140     358.000      18.921
   59.160     358.000      18.921
   59.180     352.000      18.762
   59.200     352.000      18.762
   59.220     363.000      19.053
   59.240     371.000      19.261
   59.260     370.000      19.235
   59.280     365.000      19.105
   59.300     378.000      19.442
   59.320     362.000      19.026
   59.340     342.000      18.493
   59.360     374.000      19.339
   59.380     402.000      20.050
   59.400     402.000      20.050
   59.420     383.000      19.570
   59.440     388.000      19.698
   59.460     414.000      20.347
   59.480     433.000      20.809
   59.500     412.000      20.298
   59.520     442.000      21.024
   59.540     470.000      21.679
   59.560     479.000      21.886
   59.580     509.000      22.561
   59.600     538.000      23.195
   59.620     529.000      23.000
   59.640     508.000      22.539
   59.660     504.000      22.450
   59.680     521.000      22.825
   59.700     483.000      21.977
   59.720     453.000      21.284
   59.740     450.000      21.213
   59.760     445.000      21.095
   59.780     429.000      20.712
   59.800     397.000      19.925
   59.820     389.000      19.723
   59.840     384.000      19.596
   59.860     363.000      19.053
   59.880     401.000      20.025
   59.900     371.000      19.261
   59.920     365.000      19.105
   59.940     371.000      19.261
   59.960     370.000      19.235
   59.980     374.000      19.339
   60.000     362.000      19.026
   60.020     390.000      19.748
   60.040     397.000      19.925
   60.060     404.000      20.100
   60.080     437.000      20.905
   60.100     444.000      21.071
   60.120     462.000      21.494
   60.140     467.000      21.610
   60.160     513.000      22.650
   60.180     571.000      23.896
   60.200     607.000      24.637
   60.220     685.000      26.173
   60.240     688.000      26.230
   60.260     731.000      27.037
   60.280     760.000      27.568
   60.300     767.000      27.695
   60.320     762.000      27.604
   60.340     731.000      27.037
   60.360     704.000      26.533
   60.380     686.000      26.192
   60.400     642.000      25.338
   60.420     584.000      24.166
   60.440     562.000      23.707
   60.460     551.000      23.473
   60.480     513.000      22.650
   60.500     484.000      22.000
   60.520     460.000      21.448
   60.540     421.000      20.518
   60.560     408.000      20.199
   60.580     419.000      20.469
   60.600     395.000      19.875
   60.620     391.000      19.774
   60.640     382.000      19.545
   60.660     387.000      19.672
   60.680     401.000      20.025
   60.700     382.000      19.545
   60.720     411.000      20.273
   60.740     414.000      20.347
   60.760     401.000      20.025
   60.780     430.000      20.736
   60.800     404.000      20.100
   60.820     414.000      20.347
   60.840     405.000      20.125
   60.860     419.000      20.469
   60.880     401.000      20.025
   60.900     397.000      19.925
   60.920     376.000      19.391
   60.940     362.000      19.026
   60.960     360.000      18.974
   60.980     343.000      18.520
   61.000     331.000      18.193
   