1.78897
7.00	3690
7.02	3816
7.04	3772
7.06	3682
7.08	3714
7.10	3792
7.12	3783
7.14	3852
7.16	3753
7.18	3836
7.20	3748
7.22	3729
7.24	3794
7.26	3764
7.28	3727
7.30	3682
7.32	3755
7.34	3818
7.36	3750
7.38	3747
7.40	3826
7.42	3799
7.44	3824
7.46	3768
7.48	3830
7.50	3740
7.52	3736
7.54	3773
7.56	3744
7.58	3761
7.60	3650
7.62	3605
7.64	3772
7.66	3774
7.68	3745
7.70	3721
7.72	3648
7.74	3702
7.76	3755
7.78	3719
7.80	3755
7.82	3773
7.84	3698
7.86	3661
7.88	3845
7.90	3704
7.92	3624
7.94	3907
7.96	3804
7.98	3831
8.00	3812
8.02	3760
8.04	3778
8.06	3701
8.08	3779
8.10	3844
8.12	3706
8.14	3743
8.16	3752
8.18	3904
8.20	3990
8.22	3899
8.24	3927
8.26	4110
8.28	4179
8.30	4147
8.32	4306
8.34	4448
8.36	4512
8.38	4625
8.40	4712
8.42	4955
8.44	5124
8.46	5375
8.48	5567
8.50	5905
8.52	6289
8.54	6501
8.56	7040
8.58	7702
8.60	8200
8.62	8722
8.64	9611
8.66	10511
8.68	11772
8.70	12899
8.72	14419
8.74	14996
8.76	14733
8.78	12678
8.80	10106
8.82	7408
8.84	5644
8.86	4702
8.88	4277
8.90	4060
8.92	3868
8.94	3766
8.96	3766
8.98	3858
9.00	3784
9.02	3771
9.04	3612
9.06	3555
9.08	3707
9.10	3758
9.12	3572
9.14	3643
9.16	3609
9.18	3642
9.20	3561
9.22	3620
9.24	3529
9.26	3504
9.28	3574
9.30	3650
9.32	3587
9.34	3506
9.36	3524
9.38	3497
9.40	3510
9.42	3624
9.44	3552
9.46	3483
9.48	3503
9.50	3504
9.52	3531
9.54	3405
9.56	3385
9.58	3517
9.60	3511
9.62	3445
9.64	3417
9.66	3483
9.68	3487
9.70	3424
9.72	3396
9.74	3384
9.76	3454
9.78	3459
9.80	3416
9.82	3427
9.84	3310
9.86	3403
9.88	3311
9.90	3350
9.92	3371
9.94	3365
9.96	3398
9.98	3342
10.00	3272
10.02	3377
10.04	3267
10.06	3258
10.08	3274
10.10	3301
10.12	3402
10.14	3403
10.16	3310
10.18	3355
10.20	3301
10.22	3277
10.24	3176
10.26	3221
10.28	3254
10.30	3186
10.32	3279
10.34	3251
10.36	3246
10.38	3269
10.40	3272
10.42	3281
10.44	3360
10.46	3183
10.48	3218
10.50	3246
10.52	3178
10.54	3221
10.56	3252
10.58	3299
10.60	3216
10.62	3222
10.64	3305
10.66	3146
10.68	3159
10.70	3214
10.72	3222
10.74	3134
10.76	3165
10.78	3204
10.80	3049
10.82	3122
10.84	3126
10.86	3106
10.88	3155
10.90	3162
10.92	3145
10.94	3195
10.96	3140
10.98	3176
11.00	3085
11.02	3078
11.04	3146
11.06	3082
11.08	3068
11.10	3111
11.12	3156
11.14	3094
11.16	3049
11.18	3065
11.20	2985
11.22	3054
11.24	3042
11.26	3042
11.28	3079
11.30	3038
11.32	3019
11.34	3085
11.36	2993
11.38	3024
11.40	2982
11.42	3051
11.44	3071
11.46	3070
11.48	2980
11.50	2982
11.52	3020
11.54	3004
11.56	2982
11.58	3044
11.60	3019
11.62	3054
11.64	3036
11.66	3005
11.68	2987
11.70	2930
11.72	2921
11.74	2961
11.76	2942
11.78	3038
11.80	2993
11.82	2980
11.84	3003
11.86	2944
11.88	2959
11.90	2889
11.92	2962
11.94	2844
11.96	2867
11.98	2794
12.00	2904
12.02	2895
12.04	2866
12.06	2932
12.08	2917
12.10	2941
12.12	2909
12.14	2904
12.16	2845
12.18	2839
12.20	2929
12.22	2896
12.24	2881
12.26	2829
12.28	2839
12.30	2845
12.32	2905
12.34	2929
12.36	2870
12.38	2846
12.40	2913
12.42	2884
12.44	2859
12.46	2944
12.48	2956
12.50	2821
12.52	2869
12.54	2751
12.56	2884
12.58	2861
12.60	2823
12.62	2807
12.64	2850
12.66	2775
12.68	2792
12.70	2752
12.72	2746
12.74	2842
12.76	2758
12.78	2754
12.80	2759
12.82	2797
12.84	2695
12.86	2767
12.88	2805
12.90	2836
12.92	2721
12.94	2783
12.96	2731
12.98	2780
13.00	2772
13.02	2719
13.04	2747
13.06	2779
13.08	2780
13.10	2759
13.12	2726
13.14	2779
13.16	2789
13.18	2776
13.20	2677
13.22	2703
13.24	2702
13.26	2743
13.28	2676
13.30	2661
13.32	2731
13.34	2753
13.36	2730
13.38	2706
13.40	2672
13.42	2637
13.44	2621
13.46	2688
13.48	2632
13.50	2627
13.52	2668
13.54	2686
13.56	2702
13.58	2711
13.60	2674
13.62	2571
13.64	2645
13.66	2644
13.68	2709
13.70	2720
13.72	2637
13.74	2654
13.76	2626
13.78	2694
13.80	2655
13.82	2623
13.84	2688
13.86	2638
13.88	2642
13.90	2604
13.92	2552
13.94	2602
13.96	2558
13.98	2660
14.00	2595
14.02	2616
14.04	2649
14.06	2529
14.08	2568
14.10	2630
14.12	2580
14.14	2608
14.16	2548
14.18	2554
14.20	2637
14.22	2671
14.24	2582
14.26	2626
14.28	2668
14.30	2581
14.32	2577
14.34	2558
14.36	2577
14.38	2571
14.40	2495
14.42	2558
14.44	2539
14.46	2580
14.48	2523
14.50	2502
14.52	2564
14.54	2477
14.56	2433
14.58	2497
14.60	2536
14.62	2528
14.64	2569
14.66	2443
14.68	2561
14.70	2480
14.72	2464
14.74	2509
14.76	2501
14.78	2504
14.80	2389
14.82	2456
14.84	2584
14.86	2443
14.88	2413
14.90	2510
14.92	2492
14.94	2462
14.96	2496
14.98	2513
15.00	2525
15.02	2530
15.04	2428
15.06	2405
15.08	2507
15.10	2452
15.12	2469
15.14	2476
15.16	2479
15.18	2467
15.20	2382
15.22	2429
15.24	2438
15.26	2460
15.28	2440
15.30	2429
15.32	2434
15.34	2460
15.36	2470
15.38	2305
15.40	2340
15.42	2382
15.44	2539
15.46	2438
15.48	2386
15.50	2405
15.52	2431
15.54	2396
15.56	2334
15.58	2369
15.60	2463
15.62	2404
15.64	2391
15.66	2420
15.68	2380
15.70	2368
15.72	2449
15.74	2370
15.76	2345
15.78	2349
15.80	2364
15.82	2315
15.84	2370
15.86	2440
15.88	2423
15.90	2390
15.92	2392
15.94	2405
15.96	2377
15.98	2319
16.00	2356
16.02	2394
16.04	2369
16.06	2317
16.08	2358
16.10	2313
16.12	2314
16.14	2415
16.16	2364
16.18	2301
16.20	2347
16.22	2378
16.24	2361
16.26	2319
16.28	2364
16.30	2355
16.32	2378
16.34	2363
16.36	2317
16.38	2365
16.40	2297
16.42	2329
16.44	2316
16.46	2312
16.48	2417
16.50	2333
16.52	2325
16.54	2362
16.56	2370
16.58	2347
16.60	2337
16.62	2319
16.64	2400
16.66	2370
16.68	2415
16.70	2349
16.72	2321
16.74	2336
16.76	2331
16.78	2313
16.80	2307
16.82	2392
16.84	2354
16.86	2423
16.88	2435
16.90	2470
16.92	2402
16.94	2479
16.96	2573
16.98	2578
17.00	2614
17.02	2718
17.04	2679
17.06	2775
17.08	3023
17.10	3329
17.12	3633
17.14	4009
17.16	4562
17.18	5350
17.20	6357
17.22	7508
17.24	8776
17.26	9830
17.28	10292
17.30	9682
17.32	8183
17.34	6268
17.36	4806
17.38	3550
17.40	2928
17.42	2623
17.44	2435
17.46	2390
17.48	2408
17.50	2281
17.52	2313
17.54	2290
17.56	2277
17.58	2280
17.60	2293
17.62	2227
17.64	2361
17.66	2245
17.68	2182
17.70	2278
17.72	2250
17.74	2309
17.76	2294
17.78	2241
17.80	2209
17.82	2343
17.84	2237
17.86	2280
17.88	2254
17.90	2136
17.92	2222
17.94	2151
17.96	2226
17.98	2194
18.00	2212
18.02	2154
18.04	2167
18.06	2215
18.08	2242
18.10	2221
18.12	2232
18.14	2209
18.16	2154
18.18	2216
18.20	2206
18.22	2252
18.24	2230
18.26	2216
18.28	2232
18.30	2187
18.32	2173
18.34	2145
18.36	2207
18.38	2141
18.40	2211
18.42	2203
18.44	2211
18.46	2177
18.48	2227
18.50	2190
18.52	2194
18.54	2186
18.56	2328
18.58	2264
18.60	2364
18.62	2424
18.64	2466
18.66	2550
18.68	2769
18.70	2907
18.72	3053
18.74	3195
18.76	3266
18.78	3213
18.80	3036
18.82	2831
18.84	2558
18.86	2360
18.88	2214
18.90	2160
18.92	2159
18.94	2156
18.96	2180
18.98	2115
19.00	2191
19.02	2127
19.04	2106
19.06	2201
19.08	2120
19.10	2133
19.12	2134
19.14	2131
19.16	2154
19.18	2116
19.20	2121
19.22	2102
19.24	2098
19.26	2157
19.28	2105
19.30	2172
19.32	2108
19.34	2160
19.36	2118
19.38	2194
19.40	2168
19.42	2138
19.44	2174
19.46	2080
19.48	2089
19.50	2039
19.52	2047
19.54	2110
19.56	2079
19.58	2128
19.60	2129
19.62	2151
19.64	2105
19.66	2083
19.68	2062
19.70	2061
19.72	2109
19.74	2103
19.76	2101
19.78	2090
19.80	1995
19.82	2120
19.84	2102
19.86	2085
19.88	2181
19.90	2121
19.92	2113
19.94	2115
19.96	2146
19.98	2048
20.00	2048
20.02	2093
20.04	2035
20.06	2052
20.08	2018
20.10	2033
20.12	2016
20.14	2055
20.16	2016
20.18	2103
20.20	2044
20.22	2041
20.24	2044
20.26	2016
20.28	2071
20.30	2128
20.32	2086
20.34	2062
20.36	2149
20.38	2101
20.40	2054
20.42	2105
20.44	2071
20.46	2004
20.48	2102
20.50	2033
20.52	2091
20.54	2168
20.56	2094
20.58	2094
20.60	2164
20.62	2151
20.64	2198
20.66	2267
20.68	2429
20.70	2492
20.72	2658
20.74	2857
20.76	2855
20.78	2914
20.80	2781
20.82	2897
20.84	2584
20.86	2444
20.88	2251
20.90	2218
20.92	2146
20.94	2102
20.96	2131
20.98	2113
21.00	2001
21.02	2034
21.04	2128
21.06	2067
21.08	2121
21.10	2189
21.12	2186
21.14	2240
21.16	2528
21.18	2606
21.20	2879
21.22	3215
21.24	3744
21.26	4046
21.28	4557
21.30	4843
21.32	4966
21.34	4567
21.36	3942
21.38	3407
21.40	2900
21.42	2541
21.44	2290
21.46	2215
21.48	2206
21.50	2187
21.52	2120
21.54	2133
21.56	2147
21.58	2183
21.60	2128
21.62	2067
21.64	2148
21.66	2056
21.68	1963
21.70	1941
21.72	1940
21.74	1928
21.76	1941
21.78	1879
21.80	1964
21.82	1981
21.84	1893
21.86	2039
21.88	1980
21.90	1956
21.92	1914
21.94	1993
21.96	1933
21.98	1934
22.00	1952
22.02	2027
22.04	1933
22.06	1899
22.08	1951
22.10	1956
22.12	1945
22.14	1912
22.16	1848
22.18	2022
22.20	1973
22.22	1897
22.24	1944
22.26	1878
22.28	1979
22.30	1950
22.32	1914
22.34	1869
22.36	1944
22.38	1913
22.40	1874
22.42	1914
22.44	1989
22.46	1907
22.48	1919
22.50	1957
22.52	1863
22.54	1982
22.56	1924
22.58	1947
22.60	1960
22.62	1978
22.64	1827
22.66	1870
22.68	1882
22.70	1933
22.72	1941
22.74	1868
22.76	1845
22.78	1925
22.80	1923
22.82	1931
22.84	1916
22.86	1874
22.88	1875
22.90	1869
22.92	1910
22.94	1894
22.96	1951
22.98	1969
23.00	1881
23.02	1880
23.04	1911
23.06	1876
23.08	1817
23.10	1943
23.12	1900
23.14	1933
23.16	1896
23.18	1903
23.20	1940
23.22	1915
23.24	1938
23.26	1826
23.28	1881
23.30	1817
23.32	1898
23.34	1966
23.36	1864
23.38	1831
23.40	1855
23.42	1835
23.44	1904
23.46	1846
23.48	1863
23.50	1885
23.52	1952
23.54	1957
23.56	1945
23.58	2019
23.60	2025
23.62	2064
23.64	2084
23.66	1965
23.68	1933
23.70	1942
23.72	1861
23.74	1878
23.76	1830
23.78	1966
23.80	1736
23.82	1874
23.84	1937
23.86	1857
23.88	1817
23.90	1856
23.92	1826
23.94	1792
23.96	1772
23.98	1825
24.00	1874
24.02	1839
24.04	1848
24.06	1857
24.08	1865
24.10	1833
24.12	1863
24.14	1777
24.16	1857
24.18	1758
24.20	1799
24.22	1750
24.24	1844
24.26	1821
24.28	1854
24.30	1835
24.32	1846
24.34	1928
24.36	1961
24.38	1947
24.40	1923
24.42	2066
24.44	2054
24.46	2090
24.48	2056
24.50	2024
24.52	1979
24.54	1897
24.56	1850
24.58	1857
24.60	1890
24.62	1830
24.64	1850
24.66	1860
24.68	1818
24.70	1831
24.72	1877
24.74	1901
24.76	1936
24.78	1982
24.80	2042
24.82	2075
24.84	2218
24.86	2408
24.88	2739
24.90	3043
24.92	3495
24.94	3952
24.96	4532
24.98	4737
25.00	4794
25.02	4666
25.04	3942
25.06	3350
25.08	2912
25.10	2501
25.12	2217
25.14	2104
25.16	1960
25.18	1915
25.20	1948
25.22	1898
25.24	1868
25.26	1836
25.28	1869
25.30	1813
25.32	1875
25.34	1893
25.36	1902
25.38	1936
25.40	1980
25.42	2030
25.44	2104
25.46	2141
25.48	2139
25.50	1981
25.52	1937
25.54	1950
25.56	1787
25.58	1716
25.60	1727
25.62	1693
25.64	1740
25.66	1703
25.68	1744
25.70	1735
25.72	1733
25.74	1787
25.76	1741
25.78	1758
25.80	1740
25.82	1758
25.84	1763
25.86	1720
25.88	1706
25.90	1711
25.92	1626
25.94	1688
25.96	1746
25.98	1694
26.00	1661
26.02	1740
26.04	1744
26.06	1709
26.08	1659
26.10	1654
26.12	1773
26.14	1762
26.16	1732
26.18	1709
26.20	1697
26.22	1730
26.24	1668
26.26	1735
26.28	1703
26.30	1760
26.32	1767
26.34	1731
26.36	1727
26.38	1672
26.40	1684
26.42	1740
26.44	1727
26.46	1692
26.48	1699
26.50	1673
26.52	1715
26.54	1646
26.56	1726
26.58	1757
26.60	1695
26.62	1703
26.64	1714
26.66	1668
26.68	1762
26.70	1668
26.72	1649
26.74	1762
26.76	1778
26.78	1757
26.80	1776
26.82	1876
26.84	1897
26.86	2102
26.88	2250
26.90	2464
26.92	2900
26.94	3327
26.96	4227
26.98	5348
27.00	6898
27.02	8779
27.04	10782
27.06	13049
27.08	14557
27.10	15079
27.12	14641
27.14	13240
27.16	10884
27.18	8420
27.20	6226
27.22	4549
27.24	3517
27.26	2763
27.28	2306
27.30	2098
27.32	1960
27.34	1858
27.36	1765
27.38	1733
27.40	1736
27.42	1683
27.44	1687
27.46	1621
27.48	1627
27.50	1643
27.52	1716
27.54	1690
27.56	1746
27.58	1717
27.60	1978
27.62	1978
27.64	2210
27.66	2468
27.68	2592
27.70	2816
27.72	2981
27.74	2949
27.76	2840
27.78	2570
27.80	2323
27.82	2082
27.84	1838
27.86	1746
27.88	1708
27.90	1638
27.92	1587
27.94	1607
27.96	1564
27.98	1597
28.00	1564
28.02	1526
28.04	1541
28.06	1609
28.08	1632
28.10	1702
28.12	1792
28.14	1760
28.16	1814
28.18	1791
28.20	1697
28.22	1653
28.24	1566
28.26	1470
28.28	1501
28.30	1457
28.32	1445
28.34	1479
28.36	1424
28.38	1499
28.40	1486
28.42	1468
28.44	1475
28.46	1402
28.48	1444
28.50	1418
28.52	1407
28.54	1448
28.56	1472
28.58	1422
28.60	1398
28.62	1443
28.64	1460
28.66	1425
28.68	1410
28.70	1379
28.72	1439
28.74	1420
28.76	1522
28.78	1501
28.80	1493
28.82	1476
28.84	1484
28.86	1478
28.88	1506
28.90	1472
28.92	1547
28.94	1615
28.96	1788
28.98	1899
29.00	2142
29.02	2430
29.04	2953
29.06	3598
29.08	4415
29.10	5573
29.12	6541
29.14	7580
29.16	7951
29.18	7822
29.20	7195
29.22	6081
29.24	4771
29.26	3774
29.28	2950
29.30	2379
29.32	2028
29.34	1781
29.36	1682
29.38	1576
29.40	1500
29.42	1475
29.44	1481
29.46	1421
29.48	1371
29.50	1415
29.52	1394
29.54	1465
29.56	1387
29.58	1341
29.60	1359
29.62	1341
29.64	1339
29.66	1370
29.68	1376
29.70	1296
29.72	1305
29.74	1330
29.76	1305
29.78	1305
29.80	1313
29.82	1298
29.84	1319
29.86	1328
29.88	1354
29.90	1352
29.92	1301
29.94	1354
29.96	1369
29.98	1380
30.00	1273
30.02	1342
30.04	1272
30.06	1279
30.08	1314
30.10	1303
30.12	1261
30.14	1288
30.16	1252
30.18	1342
30.20	1293
30.22	1364
30.24	1288
30.26	1331
30.28	1366
30.30	1308
30.32	1278
30.34	1368
30.36	1388
30.38	1359
30.40	1366
30.42	1320
30.44	1382
30.46	1354
30.48	1309
30.50	1363
30.52	1496
30.54	1501
30.56	1613
30.58	1781
30.60	2027
30.62	2365
30.64	2780
30.66	3020
30.68	3431
30.70	3547
30.72	3615
30.74	3227
30.76	2861
30.78	2488
30.80	2087
30.82	1805
30.84	1701
30.86	1496
30.88	1391
30.90	1357
30.92	1267
30.94	1295
30.96	1274
30.98	1298
31.00	1271
31.02	1269
31.04	1274
31.06	1251
31.08	1279
31.10	1251
31.12	1232
31.14	1209
31.16	1215
31.18	1229
31.20	1212
31.22	1241
31.24	1191
31.26	1170
31.28	1233
31.30	1212
31.32	1159
31.34	1233
31.36	1182
31.38	1174
31.40	1173
31.42	1203
31.44	1172
31.46	1191
31.48	1200
31.50	1208
31.52	1161
31.54	1204
31.56	1206
31.58	1217
31.60	1183
31.62	1211
31.64	1183
31.66	1143
31.68	1159
31.70	1201
31.72	1171
31.74	1204
31.76	1188
31.78	1236
31.80	1087
31.82	1225
31.84	1214
31.86	1187
31.88	1195
31.90	1182
31.92	1171
31.94	1164
31.96	1211
31.98	1179
32.00	1171
32.02	1173
32.04	1146
32.06	1170
32.08	1153
32.10	1138
32.12	1172
32.14	1153
32.16	1197
32.18	1181
32.20	1185
32.22	1166
32.24	1105
32.26	1152
32.28	1098
32.30	1161
32.32	1141
32.34	1190
32.36	1158
32.38	1142
32.40	1213
32.42	1125
32.44	1158
32.46	1179
32.48	1187
32.50	1167
32.52	1148
32.54	1170
32.56	1147
32.58	1137
32.60	1201
32.62	1121
32.64	1155
32.66	1132
32.68	1158
32.70	1197
32.72	1183
32.74	1151
32.76	1124
32.78	1108
32.80	1108
32.82	1168
32.84	1125
32.86	1142
32.88	1119
32.90	1170
32.92	1134
32.94	1115
32.96	1129
32.98	1212
33.00	1127
33.02	1130
33.04	1163
33.06	1108
33.08	1154
33.10	1129
33.12	1149
33.14	1144
33.16	1150
33.18	1148
33.20	1131
33.22	1195
33.24	1191
33.26	1229
33.28	1223
33.30	1329
33.32	1365
33.34	1431
33.36	1562
33.38	1809
33.40	2136
33.42	2540
33.44	3344
33.46	4169
33.48	5261
33.50	6628
33.52	8152
33.54	8990
33.56	9565
33.58	9384
33.60	8625
33.62	7314
33.64	5991
33.66	4626
33.68	3614
33.70	2950
33.72	2499
33.74	2193
33.76	2037
33.78	1943
33.80	1826
33.82	1723
33.84	1644
33.86	1545
33.88	1402
33.90	1429
33.92	1414
33.94	1475
33.96	1553
33.98	1675
34.00	1982
34.02	2359
34.04	2860
34.06	3721
34.08	4722
34.10	6013
34.12	7222
34.14	8070
34.16	8418
34.18	8317
34.20	7473
34.22	6221
34.24	4873
34.26	3816
34.28	2886
34.30	2303
34.32	1887
34.34	1574
34.36	1408
34.38	1337
34.40	1217
34.42	1163
34.44	1196
34.46	1158
34.48	1150
34.50	1153
34.52	1148
34.54	1191
34.56	1245
34.58	1339
34.60	1455
34.62	1584
34.64	1807
34.66	1987
34.68	2138
34.70	2164
34.72	2143
34.74	2048
34.76	1898
34.78	1769
34.80	1647
34.82	1609
34.84	1644
34.86	1785
34.88	1959
34.90	2251
34.92	2558
34.94	2831
34.96	2916
34.98	2889
35.00	2701
35.02	2375
35.04	2138
35.06	1944
35.08	1859
35.10	1797
35.12	1849
35.14	2112
35.16	2430
35.18	2747
35.20	3136
35.22	3360
35.24	3331
35.26	3225
35.28	3005
35.30	2583
35.32	2303
35.34	2036
35.36	1957
35.38	1902
35.40	1907
35.42	1784
35.44	1732
35.46	1644
35.48	1476
35.50	1375
35.52	1254
35.54	1140
35.56	1064
35.58	1019
35.60	1002
35.62	978
35.64	966
35.66	948
35.68	959
35.70	945
35.72	937
35.74	960
35.76	928
35.78	957
35.80	948
35.82	1014
35.84	1027
35.86	1032
35.88	1041
35.90	1003
35.92	1024
35.94	1005
35.96	948
35.98	923
36.00	921
36.02	900
36.04	884
36.06	916
36.08	895
36.10	935
36.12	959
36.14	1008
36.16	1021
36.18	1091
36.20	1125
36.22	1173
36.24	1175
36.26	1156
36.28	1117
36.30	1026
36.32	988
36.34	941
36.36	953
36.38	906
36.40	882
36.42	884
36.44	872
36.46	859
36.48	878
36.50	870
36.52	868
36.54	873
36.56	859
36.58	892
36.60	859
36.62	865
36.64	846
36.66	861
36.68	844
36.70	840
36.72	865
36.74	879
36.76	875
36.78	882
36.80	832
36.82	866
36.84	881
36.86	868
36.88	852
36.90	886
36.92	856
36.94	881
36.96	845
36.98	836
37.00	859
37.02	820
37.04	859
37.06	815
37.08	788
37.10	840
37.12	861
37.14	821
37.16	817
37.18	832
37.20	819
37.22	804
37.24	823
37.26	795
37.28	790
37.30	772
37.32	799
37.34	821
37.36	821
37.38	806
37.40	786
37.42	791
37.44	792
37.46	794
37.48	779
37.50	784
37.52	802
37.54	776
37.56	802
37.58	781
37.60	795
37.62	787
37.64	810
37.66	864
37.68	845
37.70	877
37.72	899
37.74	924
37.76	954
37.78	914
37.80	864
37.82	887
37.84	895
37.86	899
37.88	879
37.90	957
37.92	964
37.94	1087
37.96	1197
37.98	1332
38.00	1538
38.02	1751
38.04	1899
38.06	1960
38.08	2064
38.10	2040
38.12	2096
38.14	1961
38.16	1849
38.18	1713
38.20	1561
38.22	1492
38.24	1349
38.26	1254
38.28	1140
38.30	1070
38.32	1021
38.34	1013
38.36	955
38.38	957
38.40	907
38.42	829
38.44	866
38.46	858
38.48	823
38.50	852
38.52	878
38.54	862
38.56	891
38.58	971
38.60	1052
38.62	1085
38.64	1138
38.66	1181
38.68	1174
38.70	1119
38.72	1035
38.74	973
38.76	948
38.78	881
38.80	818
38.82	808
38.84	759
38.86	758
38.88	767
38.90	718
38.92	749
38.94	751
38.96	713
38.98	717
39.00	709
39.02	720
39.04	711
39.06	687
39.08	736
39.10	709
39.12	698
39.14	725
39.16	739
39.18	722
39.20	686
39.22	710
39.24	745
39.26	693
39.28	718
39.30	707
39.32	721
39.34	722
39.36	731
39.38	697
39.40	734
39.42	719
39.44	741
39.46	748
39.48	730
39.50	758
39.52	774
39.54	777
39.56	819
39.58	827
39.60	817
39.62	832
39.64	784
39.66	753
39.68	747
39.70	754
39.72	753
39.74	748
39.76	725
39.78	687
39.80	713
39.82	688
39.84	709
39.86	690
39.88	698
39.90	720
39.92	682
39.94	689
39.96	728
39.98	659
40.00	674
40.02	690
40.04	678
40.06	731
40.08	697
40.10	693
40.12	696
40.14	697
40.16	690
40.18	684
40.20	709
40.22	717
40.24	718
40.26	714
40.28	741
40.30	773
40.32	850
40.34	965
40.36	1152
40.38	1283
40.40	1419
40.42	1658
40.44	1705
40.46	1723
40.48	1705
40.50	1484
40.52	1370
40.54	1159
40.56	1037
40.58	877
40.60	795
40.62	792
40.64	733
40.66	713
40.68	711
40.70	681
40.72	703
40.74	683
40.76	659
40.78	644
40.80	656
40.82	653
40.84	656
40.86	646
40.88	636
40.90	647
40.92	642
40.94	667
40.96	643
40.98	644
41.00	635
41.02	642
41.04	639
41.06	645
41.08	636
41.10	643
41.12	637
41.14	656
41.16	639
41.18	630
41.20	653
41.22	652
41.24	638
41.26	640
41.28	620
41.30	642
41.32	686
41.34	628
41.36	650
41.38	639
41.40	634
41.42	650
41.44	667
41.46	650
41.48	669
41.50	618
41.52	640
41.54	653
41.56	621
41.58	626
41.60	621
41.62	645
41.64	627
41.66	641
41.68	640
41.70	647
41.72	643
41.74	633
41.76	611
41.78	615
41.80	623
41.82	600
41.84	626
41.86	637
41.88	605
41.90	622
41.92	608
41.94	613
41.96	617
41.98	610
42.00	618
42.02	639
42.04	607
42.06	603
42.08	626
42.10	617
42.12	621
42.14	633
42.16	641
42.18	631
42.20	656
42.22	682
42.24	672
42.26	647
42.28	642
42.30	660
42.32	661
42.34	640
42.36	652
42.38	631
42.40	647
42.42	608
42.44	657
42.46	648
42.48	638
42.50	615
42.52	673
42.54	679
42.56	679
42.58	707
42.60	708
42.62	748
42.64	776
42.66	834
42.68	781
42.70	798
42.72	838
42.74	857
42.76	886
42.78	951
42.80	956
42.82	1035
42.84	957
42.86	942
42.88	865
42.90	811
42.92	741
42.94	730
42.96	713
42.98	676
43.00	661
43.02	638
43.04	644
43.06	642
43.08	668
43.10	654
43.12	651
43.14	659
43.16	679
43.18	695
43.20	664
43.22	681
43.24	669
43.26	646
43.28	648
43.30	690
43.32	719
43.34	728
43.36	762
43.38	765
43.40	760
43.42	783
43.44	721
43.46	761
43.48	711
43.50	699
43.52	713
43.54	717
43.56	744
43.58	771
43.60	821
43.62	867
43.64	922
43.66	952
43.68	940
43.70	1006
43.72	1087
43.74	1087
43.76	1075
43.78	1091
43.80	1110
43.82	1109
43.84	1148
43.86	1069
43.88	1054
43.90	1097
43.92	1173
43.94	1240
43.96	1368
43.98	1552
44.00	1518
44.02	1535
44.04	1430
44.06	1269
44.08	1112
44.10	974
44.12	889
44.14	758
44.16	679
44.18	625
44.20	645
44.22	618
44.24	618
44.26	576
44.28	567
44.30	558
44.32	585
44.34	583
44.36	574
44.38	566
44.40	594
44.42	576
44.44	559
44.46	581
44.48	552
44.50	575
44.52	606
44.54	616
44.56	605
44.58	618
44.60	619
44.62	649
44.64	656
44.66	696
44.68	694
44.70	728
44.72	768
44.74	742
44.76	785
44.78	772
44.80	753
44.82	744
44.84	715
44.86	692
44.88	666
44.90	654
44.92	598
44.94	579
44.96	577
44.98	550
45.00	574
45.02	529
45.04	576
45.06	554
45.08	549
45.10	567
45.12	582
45.14	564
45.16	554
45.18	548
45.20	563
45.22	564
45.24	530
45.26	540
45.28	574
45.30	560
45.32	512
45.34	532
45.36	572
45.38	550
45.40	580
45.42	577
45.44	589
45.46	584
45.48	560
45.50	600
45.52	634
45.54	642
45.56	668
45.58	710
45.60	805
45.62	831
45.64	893
45.66	890
45.68	926
45.70	889
45.72	886
45.74	831
45.76	753
45.78	753
45.80	689
45.82	670
45.84	664
45.86	639
45.88	624
45.90	625
45.92	621
45.94	628
45.96	639
45.98	610
46.00	594
46.02	611
46.04	550
46.06	584
46.08	531
46.10	585
46.12	560
46.14	575
46.16	564
46.18	577
46.20	576
46.22	589
46.24	587
46.26	613
46.28	645
46.30	710
46.32	746
46.34	887
46.36	988
46.38	1147
46.40	1353
46.42	1595
46.44	1748
46.46	1890
46.48	1814
46.50	1735
46.52	1606
46.54	1419
46.56	1199
46.58	1088
46.60	951
46.62	837
46.64	776
46.66	713
46.68	715
46.70	641
46.72	655
46.74	634
46.76	614
46.78	623
46.80	621
46.82	612
46.84	615
46.86	600
46.88	640
46.90	658
46.92	679
46.94	730
46.96	767
46.98	817
47.00	922
47.02	965
47.04	1004
47.06	1060
47.08	1027
47.10	963
47.12	950
47.14	842
47.16	760
47.18	712
47.20	645
47.22	606
47.24	581
47.26	577
47.28	572
47.30	549
47.32	545
47.34	503
47.36	538
47.38	535
47.40	505
47.42	533
47.44	515
47.46	522
47.48	534
47.50	531
47.52	506
47.54	508
47.56	526
47.58	505
47.60	509
47.62	512
47.64	495
47.66	525
47.68	514
47.70	516
47.72	499
47.74	504
47.76	510
47.78	508
47.80	489
47.82	505
47.84	518
47.86	527
47.88	516
47.90	535
47.92	513
47.94	540
47.96	521
47.98	529
48.00	503
48.02	502
48.04	509
48.06	501
48.08	515
48.10	525
48.12	516
48.14	554
48.16	514
48.18	552
48.20	577
48.22	571
48.24	579
48.26	590
48.28	614
48.30	614
48.32	636
48.34	591
48.36	629
48.38	613
48.40	649
48.42	634
48.44	698
48.46	719
48.48	768
48.50	804
48.52	826
48.54	887
48.56	942
48.58	921
48.60	941
48.62	901
48.64	870
48.66	788
48.68	729
48.70	673
48.72	683
48.74	645
48.76	630
48.78	609
48.80	633
48.82	671
48.84	714
48.86	761
48.88	784
48.90	826
48.92	844
48.94	859
48.96	857
48.98	853
49.00	851
49.02	859
49.04	852
49.06	774
49.08	743
49.10	691
49.12	665
49.14	645
49.16	590
49.18	598
49.20	562
49.22	560
49.24	550
49.26	524
49.28	514
49.30	500
49.32	515
49.34	527
49.36	530
49.38	520
49.40	528
49.42	561
49.44	539
49.46	532
49.48	527
49.50	528
49.52	514
49.54	530
49.56	509
49.58	506
49.60	517
49.62	523
49.64	560
49.66	548
49.68	595
49.70	609
49.72	678
49.74	711
49.76	735
49.78	799
49.80	806
49.82	849
49.84	830
49.86	786
49.88	800
49.90	750
49.92	759
49.94	722
49.96	704
49.98	698
50.00	692
50.02	688
50.04	667
50.06	685
50.08	649
50.10	630
50.12	623
50.14	673
50.16	605
50.18	554
50.20	560
50.22	588
50.24	531
50.26	545
50.28	508
50.30	544
50.32	566
50.34	541
50.36	543
50.38	572
50.40	563
50.42	593
50.44	602
50.46	670
50.48	749
50.50	878
50.52	1061
50.54	1352
50.56	1579
50.58	1871
50.60	2042
50.62	2064
50.64	2031
50.66	1795
50.68	1586
50.70	1328
50.72	1134
50.74	962
50.76	802
50.78	711
50.80	678
50.82	612
50.84	569
50.86	553
50.88	551
50.90	538
50.92	538
50.94	533
50.96	506
50.98	525
51.00	482
51.02	478
51.04	500
51.06	494
51.08	452
51.10	481
51.12	489
51.14	502
51.16	527
51.18	540
51.20	549
51.22	580
51.24	601
51.26	582
51.28	605
51.30	572
51.32	579
51.34	551
51.36	539
51.38	531
51.40	519
51.42	493
51.44	515
51.46	516
51.48	493
51.50	474
51.52	513
51.54	494
51.56	513
51.58	490
51.60	504
51.62	502
51.64	494
51.66	484
51.68	523
51.70	498
51.72	506
51.74	526
51.76	535
51.78	566
51.80	625
51.82	661
51.84	710
51.86	724
51.88	724
51.90	748
51.92	693
51.94	685
51.96	634
51.98	610
52.00	566
52.02	561
52.04	509
52.06	488
52.08	484
52.10	472
52.12	468
52.14	476
52.16	477
52.18	479
52.20	484
52.22	474
52.24	489
52.26	480
52.28	524
52.30	521
52.32	533
52.34	533
52.36	554
52.38	567
52.40	590
52.42	590
52.44	631
52.46	660
52.48	670
52.50	742
52.52	736
52.54	735
52.56	788
52.58	770
52.60	827
52.62	784
52.64	742
52.66	712
52.68	654
52.70	624
52.72	573
52.74	550
52.76	530
52.78	515
52.80	502
52.82	491
52.84	480
52.86	469
52.88	485
52.90	507
52.92	481
52.94	510
52.96	485
52.98	452
53.00	468
53.02	469
53.04	455
53.06	479
53.08	450
53.10	456
53.12	455
53.14	480
53.16	451
53.18	453
53.20	463
53.22	471
53.24	481
53.26	464
53.28	453
53.30	485
53.32	474
53.34	450
53.36	479
53.38	471
53.40	463
53.42	500
53.44	495
53.46	517
53.48	545
53.50	552
53.52	627
53.54	705
53.56	795
53.58	867
53.60	927
53.62	1002
53.64	994
53.66	975
53.68	1016
53.70	926
53.72	828
53.74	789
53.76	747
53.78	677
53.80	646
53.82	626
53.84	599
53.86	594
53.88	615
53.90	576
53.92	538
53.94	558
53.96	528
53.98	524
54.00	497
54.02	478
54.04	461
54.06	472
54.08	445
54.10	462
54.12	460
54.14	480
54.16	451
54.18	477
54.20	453
54.22	447
54.24	465
54.26	467
54.28	460
54.30	445
54.32	449
54.34	461
54.36	459
54.38	465
54.40	440
54.42	425
54.44	423
54.46	418
54.48	423
54.50	417
54.52	436
54.54	427
54.56	445
54.58	441
54.60	429
54.62	443
54.64	459
54.66	436
54.68	429
54.70	448
54.72	444
54.74	455
54.76	458
54.78	466
54.80	450
54.82	447
54.84	446
54.86	467
54.88	470
54.90	492
54.92	523
54.94	560
54.96	587
54.98	640
55.00	659
55.02	795
55.04	844
55.06	920
55.08	1007
55.10	1090
55.12	1177
55.14	1165
55.16	1246
55.18	1262
55.20	1230
55.22	1238
55.24	1216
55.26	1122
55.28	1103
55.30	1035
55.32	934
55.34	831
55.36	786
55.38	724
55.40	683
55.42	666
55.44	619
55.46	589
55.48	591
55.50	592
55.52	584
55.54	597
55.56	618
55.58	616
55.60	619
55.62	602
55.64	623
55.66	597
55.68	552
55.70	551
55.72	548
55.74	520
55.76	543
55.78	506
55.80	509
55.82	526
55.84	528
55.86	521
55.88	513
55.90	499
55.92	523
55.94	531
55.96	536
55.98	555
56.00	584
56.02	605
56.04	616
56.06	600
56.08	584
56.10	577
56.12	530
56.14	513
56.16	508
56.18	506
56.20	470
56.22	464
56.24	455
56.26	428
56.28	438
56.30	426
56.32	433
56.34	414
56.36	410
56.38	438
56.40	402
56.42	428
56.44	417
56.46	440
56.48	440
56.50	449
56.52	477
56.54	512
56.56	525
56.58	517
56.60	543
56.62	584
56.64	618
56.66	656
56.68	651
56.70	688
56.72	712
56.74	733
56.76	729
56.78	699
56.80	728
56.82	684
56.84	628
56.86	596
56.88	566
56.90	539
56.92	518
56.94	494
56.96	504
56.98	478
57.00	450
57.02	447
57.04	427
57.06	445
57.08	431
57.10	436
57.12	430
57.14	456
57.16	466
57.18	452
57.20	473
57.22	455
57.24	460
57.26	469
57.28	475
57.30	474
57.32	487
57.34	482
57.36	459
57.38	474
57.40	459
57.42	456
57.44	435
57.46	432
57.48	452
57.50	428
57.52	412
57.54	444
57.56	421
57.58	437
57.60	419
57.62	425
57.64	438
57.66	406
57.68	424
57.70	400
57.72	398
57.74	413
57.76	414
57.78	400
57.80	408
57.82	386
57.84	417
57.86	448
57.88	472
57.90	485
57.92	569
57.94	612
57.96	702
57.98	803
58.00	939
58.02	1060
58.04	1158
58.06	1231
58.08	1222
58.10	1231
58.12	1209
58.14	1115
58.16	1012
58.18	904
58.20	801
58.22	759
58.24	702
58.26	622
58.28	575
58.30	555
58.32	534
58.34	482
58.36	494
58.38	461
58.40	450
58.42	440
58.44	415
58.46	388
58.48	411
58.50	390
58.52	404
58.54	382
58.56	404
58.58	395
58.60	432
58.62	404
58.64	458
58.66	443
58.68	441
58.70	439
58.72	454
58.74	415
58.76	430
58.78	429
58.80	377
58.82	400
58.84	399
58.86	369
58.88	365
58.90	382
58.92	359
58.94	378
58.96	375
58.98	371
59.00	368
59.02	330
59.04	350
59.06	347
59.08	353
59.10	387
59.12	367
59.14	358
59.16	358
59.18	352
59.20	352
59.22	363
59.24	371
59.26	370
59.28	365
59.30	378
59.32	362
59.34	342
59.36	374
59.38	402
59.40	402
59.42	383
59.44	388
59.46	414
59.48	433
59.50	412
59.52	442
59.54	470
59.56	479
59.58	509
59.60	538
59.62	529
59.64	508
59.66	504
59.68	521
59.70	483
59.72	453
59.74	450
59.76	445
59.78	429
59.80	397
59.82	389
59.84	384
59.86	363
59.88	401
59.90	371
59.92	365
59.94	371
59.96	370
59.98	374
60.00	362
60.02	390
60.04	397
60.06	404
60.08	437
60.10	444
60.12	462
60.14	467
60.16	513
60.18	571
60.20	607
60.22	685
60.24	688
60.26	731
60.28	760
60.30	767
60.32	762
60.34	731
60.36	704
60.38	686
60.40	642
60.42	584
60.44	562
60.46	551
60.48	513
60.50	484
60.52	460
60.54	421
60.56	408
60.58	419
60.60	395
60.62	391
60.64	382
60.66	387
60.68	401
60.70	382
60.72	411
60.74	414
60.76	401
60.78	430
60.80	404
60.82	414
60.84	405
60.86	419
60.88	401
60.90	397
60.92	376
60.94	362
60.96	360
60.98	343
61.00	331
