    2.0880   95.0631   9.753
    2.1080   99.0670   9.957
    2.1280   72.0497   8.491
    2.1480  100.0703  10.007
    2.1680   75.0537   8.666
    2.1880   93.0678   9.651
    2.2079   95.0706   9.754
    2.2279   88.0665   9.388
    2.2479   78.0600   8.839
    2.2679   97.0760   9.857
    2.2879   71.0566   8.433
    2.3079   81.0657   9.007
    2.3279   76.0628   8.725
    2.3479   70.0588   8.374
    2.3679   65.0555   8.069
    2.3879   78.0678   8.839
    2.4079   85.0751   9.228
    2.4279   71.0638   8.434
    2.4479   81.0739   9.008
    2.4679   96.0891   9.807
    2.4879   86.0811   9.282
    2.5079   73.0699   8.552
    2.5279   83.0808   9.119
    2.5479   94.0930   9.705
    2.5679   80.0804   8.953
    2.5879   90.0918   9.497
    2.6079   83.0860   9.120
    2.6279   94.0989   9.706
    2.6479   88.0940   9.391
    2.6679   70.0759   8.376
    2.6879   78.0859   8.841
    2.7079   63.0704   7.946
    2.7279   71.0805   8.436
    2.7478   86.0989   9.284
    2.7678   82.0957   9.066
    2.7878   77.0912   8.785
    2.8078   83.0997   9.121
    2.8278   84.1023   9.176
    2.8478   73.0902   8.555
    2.8678   79.0990   8.899
    2.8878   62.0788   7.884
    2.9078   71.0915   8.437
    2.9278   66.0862   8.135
    2.9478   66.0874   8.135
    2.9678   58.0778   7.626
    2.9878   60.0816   7.757
    3.0078   58.0800   7.626
    3.0278   71.0992   8.438
    3.0478   60.0849   7.757
    3.0678   65.0932   8.074
    3.0878   58.0843   7.627
    3.1078   68.1001   8.258
    3.1278   50.0745   7.082
    3.1478   61.0921   7.822
    3.1678   64.0979   8.012
    3.1878   54.0836   7.360
    3.2078   59.0925   7.693
    3.2278   54.0857   7.360
    3.2478   68.1093   8.259
    3.2678   62.1009   7.887
    3.2877   57.0939   7.562
    3.3077   50.0834   7.083
    3.3277   50.0844   7.083
    3.3477   65.1110   8.076
    3.3677   71.1227   8.441
    3.3877   61.1067   7.824
    3.4077   63.1115   7.951
    3.4277   68.1218   8.261
    3.4477   53.0960   7.293
    3.4677   54.0990   7.362
    3.4877   52.0964   7.224
    3.5077   63.1181   7.952
    3.5277   64.1214   8.015
    3.5477   57.1093   7.564
    3.5677   56.1086   7.498
    3.5877   68.1334   8.262
    3.6077   60.1190   7.761
    3.6277   62.1244   7.890
    3.6477   54.1095   7.363
    3.6677   62.1271   7.890
    3.6877   49.1016   7.015
    3.7077   42.0880   6.494
    3.7277   56.1186   7.499
    3.7477   53.1135   7.296
    3.7677   60.1298   7.763
    3.7877   69.1509   8.325
    3.8076   50.1105   7.087
    3.8276   60.1340   7.763
    3.8476   58.1309   7.633
    3.8676   61.1391   7.828
    3.8876   67.1544   8.204
    3.9076   56.1303   7.501
    3.9276   62.1458   7.893
    3.9476   60.1425   7.764
    3.9676   63.1512   7.956
    3.9876   52.1260   7.229
    4.0076   55.1347   7.434
    4.0276   52.1286   7.229
    4.0476   54.1349   7.367
    4.0676   57.1438   7.569
    4.0876   50.1273   7.089
    4.1076   69.1775   8.328
    4.1276   59.1532   7.701
    4.1476   61.1600   7.831
    4.1676   69.1827   8.329
    4.1876   69.1845   8.329
    4.2076   58.1565   7.636
    4.2276   86.2343   9.299
    4.2476   82.2255   9.080
    4.2676   62.1721   7.896
    4.2876   75.2102   8.685
    4.3076   60.1697   7.768
    4.3276   77.2198   8.800
    4.3475   68.1959   8.270
    4.3675   82.2385   9.082
    4.3875   86.2524   9.301
    4.4075   75.2221   8.686
    4.4275   89.2660   9.462
    4.4475   84.2533   9.193
    4.4675   87.2647   9.356
    4.4875   94.2886   9.725
    4.5075  106.3284  10.328
    4.5275  103.3219  10.181
    4.5475  103.3248  10.181
    4.5675  100.3181  10.032
    4.5875  108.3465  10.426
    4.6075  121.3917  11.036
    4.6275  122.3983  11.081
    4.6475  143.4710  11.998
    4.6675  151.5016  12.329
    4.6875  136.4557  11.701
    4.7075  167.5643  12.967
    4.7275  157.5350  12.573
    4.7475  196.6736  14.048
    4.7675  195.6758  14.013
    4.7875  171.5976  13.122
    4.8075  210.7401  14.542
    4.8275  220.7818  14.885
    4.8475  255.9137  16.026
    4.8675  253.9141  15.963
    4.8874  300.0891  17.355
    4.9074  328.2009  18.150
    4.9274  330.2181  18.206
    4.9474  368.3699  19.229
    4.9674  372.3961  19.334
    4.9874  406.5363  20.201
    5.0074  448.7093  21.223
    5.0274  468.8000  21.693
    5.0474  578.2379  24.093
    5.0674  616.4045  24.876
    5.0874  656.5814  25.674
    5.1074  807.1986  28.468
    5.1274  827.3039  28.820
    5.1474 1004.0410  31.751
    5.1674 1308.3064  36.244
    5.1874 1568.4105  39.684
    5.2074 1989.1931  44.693
    5.2274 2801.6279  53.041
    5.2474 3805.9170  61.822
    5.2674 3074.9578  55.570
    5.2874 1649.0015  40.694
    5.3074  520.2255  22.857
    5.3274  186.8052  13.697
    5.3474  121.5277  11.048
    5.3674   90.3955   9.529
    5.3874   72.3187   8.523
    5.4073   75.3345   8.699
    5.4273   86.3864   9.315
    5.4473   59.2670   7.716
    5.4673   66.3009   8.161
    5.4873   47.2159   6.887
    5.5073   60.2776   7.782
    5.5273   67.3122   8.223
    5.5473   49.2300   7.033
    5.5673   57.2695   7.586
    5.5873   48.2286   6.961
    5.6073   48.2302   6.961
    5.6273   62.2995   7.912
    5.6473   51.2481   7.176
    5.6673   48.2352   6.962
    5.6873   55.2714   7.453
    5.7073   64.3180   8.040
    5.7273   51.2552   7.177
    5.7473   49.2469   7.035
    5.7673   47.2385   6.890
    5.7873   48.2453   6.964
    5.8073   48.2470   6.964
    5.8273   51.2642   7.178
    5.8473   51.2660   7.179
    5.8673   48.2521   6.965
    5.8873   56.2962   7.523
    5.9073   46.2449   6.818
    5.9273   43.2305   6.593
    5.9472   65.3508   8.106
    5.9672   51.2771   7.180
    5.9872   50.2735   7.110
    6.0072   48.2643   6.966
    6.0272   54.2993   7.389
    6.0472   52.2902   7.251
    6.0672   57.3202   7.592
    6.0872   57.3223   7.593
    6.1072   45.2561   6.746
    6.1272   55.3151   7.459
    6.1472   60.3460   7.791
    6.1672   50.2902   7.112
    6.1872   64.3739   8.047
    6.2072   68.3998   8.295
    6.2272   45.2663   6.748
    6.2472   64.3812   8.048
    6.2672   56.3357   7.528
    6.2872   56.3378   7.528
    6.3072   62.3764   7.922
    6.3272   43.2627   6.598
    6.3472   45.2767   6.749
    6.3672   59.3651   7.729
    6.3872   52.3238   7.256
    6.4072   43.2694   6.599
    6.4272   63.3972   7.987
    6.4472   53.3362   7.326
    6.4672   53.3383   7.327
    6.4871   42.2698   6.522
    6.5071   55.3555   7.464
    6.5271   50.3251   7.117
    6.5471   50.3271   7.117
    6.5671   54.3555   7.397
    6.5871   55.3643   7.465
    6.6071   51.3398   7.189
    6.6271   61.4089   7.863
    6.6471   53.3575   7.329
    6.6671   65.4410   8.117
    6.6871   54.3686   7.399
    6.7071   57.3914   7.602
    6.7271   46.3178   6.829
    6.7471   63.4378   7.992
    6.7671   61.4264   7.865
    6.7871   54.3797   7.400
    6.8071   32.2264   5.697
    6.8271   55.3914   7.469
    6.8471   60.4295   7.801
    6.8671   56.4032   7.537
    6.8871   57.4128   7.605
    6.9071   56.4079   7.538
    6.9271   74.5421   8.665
    6.9471   63.4642   7.996
    6.9671   69.5114   8.368
    6.9871   64.4771   8.060
    7.0071   67.5023   8.247
    7.0270   74.5579   8.667
    7.0470   75.5687   8.726
    7.0670   82.6253   9.124
    7.0870   83.6365   9.180
    7.1070   87.6710   9.399
    7.1270   84.6515   9.236
    7.1470   91.7098   9.614
    7.1670   90.7059   9.561
    7.1870  103.8124  10.229
    7.2070  109.8646  10.523
    7.2270  105.8375  10.329
    7.2470  128.0186  11.360
    7.2670  131.0484  11.494
    7.2870  155.2488  12.510
    7.3070  149.2068  12.265
    7.3270  196.5988  14.079
    7.3470  253.0692  15.974
    7.3670  292.4038  17.171
    7.3870  332.7502  18.317
    7.4070  337.8071  18.456
    7.4270  200.6765  14.226
    7.4470  105.8894  10.334
    7.4670   72.6132   8.558
    7.4870   66.5651   8.194
    7.5070   80.6886   9.021
    7.5270   70.6058   8.439
    7.5469   60.5220   7.813
    7.5669   67.5860   8.257
    7.5869   69.6067   8.380
    7.6069   84.7425   9.246
    7.6269   74.6575   8.679
    7.6469   59.5270   7.750
    7.6669   47.4220   6.917
    7.6869   82.7402   9.137
    7.7069   67.6079   8.260
    7.7269   67.6111   8.260
    7.7469   60.5501   7.817
    7.7669   58.5345   7.686
    7.7869   66.6114   8.199
    7.8069   59.5494   7.753
    7.8269   72.6739   8.565
    7.8469   65.6115   8.138
    7.8669   57.5390   7.621
    7.8869   71.6748   8.506
    7.9069   61.5827   7.885
    7.9269   66.6337   8.202
    7.9469   55.5307   7.488
    7.9669   57.5528   7.623
    7.9869   72.7018   8.568
    8.0069   62.6074   7.951
    8.0269   70.6892   8.449
    8.0469   58.5739   7.691
    8.0669   64.6364   8.080
    8.0868   57.5696   7.625
    8.1068   68.6829   8.329
    8.1268   60.6056   7.824
    8.1468   66.6694   8.206
    8.1668   51.5198   7.214
    8.1868   60.6146   7.825
    8.2068   56.5764   7.560
    8.2268   66.6827   8.208
    8.2468   68.7068   8.332
    8.2668   65.6789   8.146
    8.2868   70.7347   8.454
    8.3068   75.7910   8.752
    8.3268   59.6253   7.763
    8.3468   65.6922   8.148
    8.3668   84.8988   9.263
    8.3868   61.6558   7.894
    8.4068   66.7130   8.212
    8.4268   71.7707   8.518
    8.4468   62.6762   7.960
    8.4668   71.7780   8.518
    8.4868   59.6496   7.766
    8.5068   61.6748   7.897
    8.5268   83.9225   9.212
    8.5468   54.6030   7.431
    8.5668   80.8976   9.045
    8.5868   78.8792   8.931
    8.6068   66.7474   8.216
    8.6267   71.8078   8.522
    8.6467   78.8916   8.933
    8.6667   80.9187   9.047
    8.6867   57.6576   7.637
    8.7067   76.8809   8.819
    8.7267   73.8500   8.643
    8.7467   80.9358   9.049
    8.7667   74.8696   8.703
    8.7867   76.8972   8.821
    8.8067   57.6760   7.639
    8.8267   71.8458   8.527
    8.8467   77.9215   8.880
    8.8667   85.0098   9.275
    8.8867   75.9057   8.765
    8.9067   62.7521   7.970
    8.9267   72.8774   8.589
    8.9467   77.9425   8.882
    8.9667   86.0451   9.333
    8.9867   69.8522   8.409
    9.0067   84.0297   9.223
    9.0267   73.9097   8.650
    9.0467   76.9513   8.827
    9.0667   66.8298   8.226
    9.0867   85.0608   9.281
    9.1067   95.1923   9.818
    9.1267   65.8281   8.165
    9.1466   75.9597   8.771
    9.1666   86.0924   9.338
    9.1866   76.9810   8.830
    9.2066   85.0891   9.284
    9.2266  106.3673  10.380
    9.2466   61.7978   7.912
    9.2666   85.1034   9.286
    9.2866   75.9894   8.775
    9.3066   80.0467   9.006
    9.3266   82.0778   9.120
    9.3466   70.9355   8.478
    9.3666   92.2214   9.667
    9.3866   92.2266   9.668
    9.4066  102.3672  10.186
    9.4266   82.1012   9.122
    9.4466   88.1878   9.455
    9.4666  103.3985  10.238
    9.4866   94.2805   9.776
    9.5066   79.0786   8.954
    9.5266   79.0831   8.954
    9.5466   98.3527   9.986
    9.5666   83.1483   9.182
    9.5866   90.2516   9.567
    9.6066   95.3274   9.832
    9.6266  104.4606  10.293
    9.6466  105.4809  10.343
    9.6666  101.4299  10.143
    9.6865   91.2923   9.623
    9.7065   85.2111   9.297
    9.7265   81.1582   9.074
    9.7465   96.3811   9.888
    9.7665   97.4014   9.941
    9.7865  105.5244  10.348
    9.8065   97.4129   9.942
    9.8265  100.4631  10.097
    9.8465   92.3504   9.681
    9.8665  112.6539  10.693
    9.8865   93.3764   9.735
    9.9065  110.6373  10.597
    9.9265   97.4479   9.946
    9.9465   95.4235   9.842
    9.9665  114.7181  10.792
    9.9865  114.7251  10.792
   10.0065  114.7320  10.793
   10.0265  134.0314  11.666
   10.0465  126.9314  11.353
   10.0665  128.9701  11.444
   10.0865  145.2272  12.145
   10.1065  157.4237  12.645
   10.1265  178.7631  13.475
   10.1465  166.5849  13.008
   10.1665  197.0699  14.149
   10.1865  223.4951  15.068
   10.2065  247.8917  15.870
   10.2264  243.8429  15.740
   10.2464  320.0637  18.034
   10.2664  350.5677  18.874
   10.2864  426.8047  20.826
   10.3064  490.8560  22.335
   10.3264  639.2707  25.489
   10.3464  660.6550  25.913
   10.3664  968.6826  31.379
   10.3864 1181.1962  34.651
   10.4064 1564.5227  39.881
   10.4264 2135.9775  46.600
   10.4464 2542.7979  50.846
   10.4664 2401.6267  49.416
   10.4864 1557.8009  39.800
   10.5064  715.9019  26.982
   10.5264  306.1082  17.644
   10.5464  170.8620  13.182
   10.5664  130.1889  11.507
   10.5864  144.4375  12.121
   10.6064  138.3434  11.863
   10.6264  140.3869  11.951
   10.6464  128.1876  11.420
   10.6664  104.7951  10.326
   10.6864  109.8893  10.574
   10.7064  112.9491  10.721
   10.7264  103.7978  10.278
   10.7463   94.6453   9.814
   10.7663   92.6159   9.709
   10.7863  106.8715  10.430
   10.8063  108.9143  10.529
   10.8263  101.7957  10.180
   10.8463  103.8384  10.282
   10.8663   96.7186   9.923
   10.8863   95.7068   9.871
   10.9063   88.5856   9.497
   10.9263  102.8475  10.234
   10.9463  103.8727  10.285
   10.9663  108.9717  10.535
   10.9863  101.8495  10.185
   11.0063  102.8749  10.236
   11.0263  113.0680  10.732
   11.0463  110.0195  10.587
   11.0663  114.1019  10.782
   11.0863   96.7894   9.930
   11.1063  118.1928  10.974
   11.1263   94.7644   9.827
   11.1463  123.3040  11.209
   11.1663  103.9492  10.293
   11.1863  105.9946  10.394
   11.2063  109.0595  10.543
   11.2263  116.2022  10.883
   11.2463  115.1907  10.836
   11.2663  122.3347  11.168
   11.2862  100.9330  10.144
   11.3062  121.3318  11.122
   11.3262  102.9861  10.248
   11.3462  124.4076  11.263
   11.3662  113.1983  10.744
   11.3862  125.4446  11.311
   11.4062  136.6727  11.807
   11.4262  143.8222  12.112
   11.4462  136.6916  11.808
   11.4662  161.1848  12.823
   11.4862  176.4994  13.419
   11.5062  208.1410  14.573
   11.5262  236.7258  15.542
   11.5462  229.5992  15.307
   11.5662  264.3127  16.424
   11.5862  318.4222  18.027
   11.6062  403.1589  20.285
   11.6262  481.7833  22.176
   11.6462  608.3962  24.921
   11.6662  746.2567  27.601
   11.6862  693.2204  26.603
   11.7062  508.4657  22.785
   11.7262  339.0011  18.605
   11.7462  189.9358  13.927
   11.7662  145.0151  12.169
   11.7862  126.6419  11.373
   11.8062  127.6723  11.419
   11.8261  151.1748  12.426
   11.8461  153.2286  12.511
   11.8661  128.7213  11.467
   11.8861  121.5788  11.145
   11.9061  161.4356  12.843
   11.9261  147.1418  12.262
   11.9461  152.2619  12.474
   11.9661  200.3052  14.308
   11.9861  209.5181  14.633
   12.0061  245.3073  15.835
   12.0261  268.8354  16.577
   12.0461  234.0981  15.470
   12.0661  197.3110  14.203
   12.0861  164.6083  12.973
   12.1061  180.9801  13.603
   12.1261  215.7604  14.854
   12.1461  240.3195  15.677
   12.1661  239.3145  15.644
   12.1861  254.6739  16.139
   12.2061  326.2930  18.269
   12.2261  341.6611  18.695
   12.2461  417.3894  20.664
   12.2661  532.0063  23.330
   12.2861  671.1962  26.206
   12.3061  784.8259  28.338
   12.3261 1085.7396  33.333
   12.3460 1507.4581  39.278
   12.3660 2001.9065  45.265
   12.3860 2228.2598  47.757
   12.4060 2064.6470  45.972
   12.4260 1275.5297  36.135
   12.4460  712.5485  27.009
   12.4660  349.1341  18.907
   12.4860  209.9058  14.660
   12.5060  162.8173  12.912
   12.5260  165.9019  13.034
   12.5460  143.3828  12.118
   12.5660  124.9574  11.313
   12.5860  154.6721  12.587
   12.6060  143.4155  12.121
   12.6260  136.2551  11.815
   12.6460  120.8972  11.129
   12.6660  144.4730  12.167
   12.6860  126.0393  11.365
   12.7060  144.4951  12.169
   12.7260  119.9094  11.086
   12.7460  113.7690  10.798
   12.7660  115.8278  10.896
   12.7860  120.9623  11.135
   12.8060  129.1731  11.508
   12.8260  110.7283  10.655
   12.8460  111.7623  10.705
   12.8660  133.3048  11.692
   12.8859  130.2386  11.557
   12.9059  123.0697  11.235
   12.9259  115.8997  10.903
   12.9459  139.5008  11.962
   12.9659  121.0469  11.143
   12.9859  105.6679  10.412
   13.0059  121.0659  11.145
   13.0259  141.5966  12.054
   13.0459  126.2156  11.380
   13.0659  101.5962  10.211
   13.0859  109.8147  10.616
   13.1059  131.3775  11.612
   13.1259  122.1497  11.197
   13.1459  114.9735  10.864
   13.1659  120.1158  11.105
   13.1859  120.1253  11.106
   13.2059  141.6976  12.062
   13.2259  112.9564  10.770
   13.2459  132.4776  11.664
   13.2659  123.2448  11.251
   13.2859  122.2276  11.205
   13.3059  133.5367  11.712
   13.3259  125.3291  11.347
   13.3459  105.8191  10.427
   13.3659  125.3493  11.349
   13.3859  124.3319  11.303
   13.4059  117.1486  10.972
   13.4258  122.2965  11.211
   13.4458  129.5009  11.537
   13.4658  124.3721  11.307
   13.4858  122.3263  11.214
   13.5058  134.6727  11.766
   13.5258  121.3181  11.168
   13.5458  131.6101  11.633
   13.5658  124.4228  11.311
   13.5858  129.5749  11.543
   13.6058  138.8416  11.950
   13.6258  121.3678  11.173
   13.6458  130.6354  11.592
   13.6658  128.5888  11.501
   13.6858  130.6570  11.594
   13.7058  151.2454  12.475
   13.7258  132.7365  11.687
   13.7458  128.6313  11.505
   13.7658  132.7585  11.689
   13.7858  132.7696  11.690
   13.8058  132.7806  11.691
   13.8258  135.8798  11.827
   13.8458  137.9501  11.917
   13.8658  144.1391  12.182
   13.8858  123.5581  11.279
   13.9058  124.5982  11.327
   13.9258  154.4735  12.613
   13.9458  150.3669  12.444
   13.9657  152.4395  12.530
   13.9857  142.1515  12.101
   14.0057  156.5858  12.701
   14.0257  142.1755  12.103
   14.0457  147.3392  12.321
   14.0657  142.1996  12.105
   14.0857  148.3947  12.366
   14.1057  133.9789  11.751
   14.1257  139.1437  11.976
   14.1457  144.3095  12.196
   14.1657  132.9822  11.708
   14.1857  141.2413  12.067
   14.2057  130.9429  11.619
   14.2257  134.0475  11.757
   14.2457  126.8405  11.437
   14.2657  148.5089  12.376
   14.2857  121.7053  11.204
   14.3057  125.8417  11.393
   14.3257  128.9473  11.533
   14.3457  140.3068  12.031
   14.3657  153.7318  12.594
   14.3857  153.7451  12.595
   14.4057  142.4071  12.122
   14.4257  158.9319  12.807
   14.4457  142.4319  12.125
   14.4657  135.2188  11.814
   14.4856  132.1337  11.679
   14.5056  154.8577  12.644
   14.5256  139.3841  11.996
   14.5456  135.2661  11.818
   14.5656  159.0290  12.815
   14.5856  155.9447  12.691
   14.6056  149.7614  12.437
   14.6256  176.6307  13.507
   14.6456  191.1086  14.051
   14.6656  207.6552  14.647
   14.6856  239.7028  15.737
   14.7056  271.7561  16.757
   14.7256  317.2491  18.106
   14.7456  369.9846  19.554
   14.7656  334.8762  18.604
   14.7856  309.0645  17.874
   14.8056  268.7756  16.669
   14.8256  216.0735  14.946
   14.8456  186.1087  13.872
   14.8656  165.4447  13.080
   14.8856  185.1079  13.836
   14.9056  191.3297  14.067
   14.9256  188.2440  13.954
   14.9456  199.6393  14.370
   14.9656  200.6918  14.409
   14.9856  216.2287  14.957
   15.0056  258.6701  16.360
   15.0255  315.6060  18.072
   15.0455  278.3793  16.973
   15.0655  269.0898  16.688
   15.0855  207.0110  14.638
   15.1055  241.1897  15.801
   15.1255  209.1191  14.714
   15.1455  262.9757  16.501
   15.1655  269.2123  16.696
   15.1855  340.6882  18.783
   15.2055  394.5716  20.215
   15.2255  493.0008  22.597
   15.2455  542.7649  23.711
   15.2655  719.9547  27.309
   15.2855  938.6171  31.183
   15.3055 1369.7195  37.672
   15.3255 1558.4326  40.185
   15.3455 1336.8109  37.220
   15.3655 1058.1473  33.116
   15.3855  566.9541  24.241
   15.4055  387.6791  20.046
   15.4255  245.6911  15.959
   15.4455  203.2064  14.515
   15.4655  183.5249  13.795
   15.4855  187.6898  13.951
   15.5055  200.1520  14.407
   15.5255  184.6134  13.837
   15.5455  185.6679  13.877
   15.5654  180.4984  13.684
   15.5854  184.6651  13.841
   15.6054  172.2319  13.368
   15.6254  159.7964  12.877
   15.6454  193.0190  14.153
   15.6654  179.5453  13.651
   15.6854  183.7140  13.809
   15.7054  196.1877  14.271
   15.7254  179.5962  13.654
   15.7454  172.3456  13.377
   15.7654  183.7835  13.814
   15.7854  190.0314  14.048
   15.8054  182.7798  13.778
   15.8254  181.7586  13.740
   15.8454  183.8533  13.819
   15.8654  192.1814  14.129
   15.8854  179.7327  13.665
   15.9054  215.0765  14.949
   15.9254  172.4933  13.388
   15.9454  195.3725  14.249
   15.9654  168.3691  13.228
   15.9854  185.0159  13.868
   16.0054  177.7571  13.593
   16.0254  186.0911  13.909
   16.0454  194.4267  14.218
   16.0654  178.8483  13.637
   16.0853  205.9033  14.633
   16.1053  194.4830  14.222
   16.1253  179.9402  13.681
   16.1453  200.7620  14.451
   16.1653  211.1846  14.822
   16.1853  207.0435  14.677
   16.2053  197.6989  14.343
   16.2253  225.8150  15.329
   16.2453  257.0587  16.356
   16.2653  285.1861  17.229
   16.2853  317.4827  18.179
   16.3053  325.8420  18.418
   16.3253  392.5063  20.215
   16.3453  394.6273  20.271
   16.3653  565.4450  24.266
   16.3853  649.8571  26.015
   16.4053  912.3892  30.827
   16.4253 1141.6406  34.485
   16.4453 1753.2577  42.737
   16.4653 2129.5383  47.103
   16.4853 2464.2153  50.671
   16.5053 2319.6140  49.165
   16.5253 1592.4176  40.738
   16.5453 1108.9663  33.998
   16.5653  566.0042  24.290
   16.5853  376.3312  19.807
   16.6053  278.3669  17.036
   16.6252  243.9862  15.950
   16.6452  216.8983  15.039
   16.6652  220.0486  15.149
   16.6852  208.5977  14.750
   16.7052  215.9203  15.007
   16.7252  213.8556  14.936
   16.7452  209.7038  14.791
   16.7652  199.2909  14.420
   16.7852  214.9636  14.977
   16.8052  211.8544  14.869
   16.8252  199.3511  14.425
   16.8452  224.4231  15.306
   16.8652  205.6550  14.652
   16.8852  246.3934  16.039
   16.9052  214.0499  14.950
   16.9252  217.2043  15.060
   16.9452  253.7789  16.280
   16.9652  265.2938  16.646
   16.9852  312.3264  18.062
   17.0052  329.0732  18.541
   17.0252  395.9728  20.340
   17.0452  390.7888  20.207
   17.0652  395.0088  20.317
   17.0852  335.4783  18.725
   17.1052  342.8292  18.930
   17.1252  380.4958  19.943
   17.1452  432.8062  21.271
   17.1651  553.0868  24.047
   17.1851  592.8781  24.899
   17.2051  815.6835  29.206
   17.2251 1006.1135  32.438
   17.2451 1579.4059  40.645
   17.2651 1757.4014  42.876
   17.2851 2073.5300  46.576
   17.3051 1794.3857  43.330
   17.3251 1253.5845  36.218
   17.3451  907.3210  30.814
   17.3651  482.4896  22.472
   17.3851  326.5779  18.489
   17.4051  266.9425  16.717
   17.4251  253.3601  16.287
   17.4451  247.1043  16.085
   17.4651  231.4227  15.567
   17.4851  219.9269  15.176
   17.5051  235.6607  15.711
   17.5251  211.5932  14.888
   17.5451  233.6150  15.644
   17.5651  200.1128  14.480
   17.5851  245.1902  16.029
   17.6051  234.7367  15.684
   17.6251  217.9928  15.115
   17.6451  227.4492  15.440
   17.6651  244.2455  16.001
   17.6850  230.6424  15.550
   17.7050  210.7456  14.865
   17.7250  230.6913  15.553
   17.7450  232.8132  15.625
   17.7650  229.6915  15.521
   17.7850  199.2969  14.459
   17.8050  229.7404  15.524
   17.8250  207.7327  14.763
   17.8450  229.7895  15.528
   17.8650  231.9128  15.600
   17.8850  229.8386  15.531
   17.9050  239.3097  15.849
   17.9250  233.0371  15.640
   17.9450  239.3610  15.852
   17.9650  250.9361  16.232
   17.9850  241.5126  15.925
   18.0050  236.2878  15.753
   18.0250  235.2630  15.719
   18.0450  236.3388  15.756
   18.0650  257.3745  16.443
   18.0850  232.1874  15.619
   18.1050  246.9228  16.107
   18.1250  277.4243  17.074
   18.1450  250.1293  16.213
   18.1650  279.5866  17.143
   18.1850  301.6920  17.808
   18.2050  322.7511  18.420
   18.2249  341.7116  18.955
   18.2449  372.2434  19.785
   18.2649  462.7259  22.060
   18.2849  569.0048  24.463
   18.3049  614.2979  25.420
   18.3249  643.8210  26.025
   18.3449  542.8890  23.899
   18.3649  429.3082  21.254
   18.3849  354.6391  19.318
   18.4049  305.2126  17.923
   18.4249  299.9834  17.769
   18.4449  250.5401  16.240
   18.4649  274.7823  17.009
   18.4849  242.1720  15.968
   18.5049  234.8275  15.725
   18.5249  248.5445  16.179
   18.5449  251.7319  16.283
   18.5649  280.2013  17.180
   18.5849  266.5368  16.757
   18.6049  295.0143  17.630
   18.6249  269.7574  16.860
   18.6449  255.0334  16.394
   18.6649  305.6526  17.949
   18.6849  334.1472  18.768
   18.7049  339.4556  18.917
   18.7249  390.1013  20.280
   18.7449  400.6894  20.555
   18.7648  478.7718  22.470
   18.7848  590.6218  24.958
   18.8048  643.4281  26.052
   18.8248  669.8734  26.583
   18.8448  586.6008  24.877
   18.8648  494.8683  22.851
   18.8848  402.0599  20.598
   18.9048  319.7845  18.371
   18.9248  318.7651  18.343
   18.9448  314.5786  18.223
   18.9648  278.7187  17.154
   18.9848  277.6944  17.123
   19.0048  311.5176  18.137
   19.0248  320.0019  18.384
   19.0448  304.1948  17.925
   19.0648  322.1874  18.448
   19.0848  314.8288  18.238
   19.1048  286.3367  17.394
   19.1248  301.1633  17.839
   19.1448  296.9704  17.716
   19.1648  303.3461  17.906
   19.1848  289.6388  17.498
   19.2048  318.2164  18.342
   19.2248  358.4310  19.467
   19.2448  383.8506  20.147
   19.2648  389.1826  20.288
   19.2847  374.4196  19.900
   19.3047  339.5551  18.952
   19.3247  329.0150  18.657
   19.3447  299.4276  17.799
   19.3647  305.8112  17.989
   19.3847  312.1964  18.177
   19.4047  296.3563  17.711
   19.4247  299.5662  17.807
   19.4447  296.4249  17.715
   19.4647  278.4601  17.171
   19.4847  337.7912  18.913
   19.5047  289.1151  17.498
   19.5247  319.8642  18.406
   19.5447  289.1824  17.502
   19.5647  291.3350  17.568
   19.5847  294.5475  17.666
   19.6047  282.9258  17.315
   19.6247  313.6923  18.233
   19.6447  303.1301  17.924
   19.6647  328.6061  18.664
   19.6847  289.4193  17.516
   19.7047  259.7657  16.596
   19.7247  295.8497  17.712
   19.7447  314.9738  18.277
   19.7647  330.9205  18.735
   19.7847  319.2911  18.404
   19.8047  311.9025  18.191
   19.8246  286.4748  17.434
   19.8446  326.8321  18.623
   19.8646  300.3391  17.853
   19.8846  303.5588  17.950
   19.9046  315.2715  18.294
   19.9246  310.0007  18.141
   19.9446  301.5433  17.893
   19.9646  313.2601  18.239
   19.9846  302.6771  17.929
   20.0046  346.2614  19.178
   20.0246  334.6176  18.854
   20.0446  346.3440  19.182
   20.0646  325.1347  18.587
   20.0846  336.8629  18.920
   20.1046  326.2753  18.622
   20.1246  311.4336  18.194
   20.1446  330.6057  18.747
   20.1646  335.9612  18.899
   20.1846  361.5207  19.606
   20.2046  365.8179  19.724
   20.2246  382.8788  20.179
   20.2446  377.6065  20.041
   20.2646  372.3330  19.902
   20.2846  401.1043  20.658
   20.3046  432.0106  21.440
   20.3246  486.3368  22.750
   20.3446  560.8983  24.433
   20.3645  683.3778  26.971
   20.3845  799.5000  29.174
   20.4045 1107.2982  34.336
   20.4245 1271.4180  36.795
   20.4445 1305.6515  37.289
   20.4645 1177.9987  35.422
   20.4845  902.2482  31.002
   20.5045  726.5742  27.822
   20.5245  507.1723  23.246
   20.5445  429.4441  21.392
   20.5645  338.9081  19.005
   20.5845  352.8059  19.392
   20.6045  358.1792  19.540
   20.6245  381.6783  20.172
   20.6445  382.7914  20.203
   20.6645  371.1080  19.893
   20.6845  370.0871  19.867
   20.7045  397.8659  20.601
   20.7245  375.5122  20.015
   20.7445  427.8380  21.365
   20.7645  535.6638  23.908
   20.7845  553.8722  24.312
   20.8045  707.6352  27.482
   20.8245  855.0316  30.211
   20.8445 1156.1971  35.133
   20.8645 1258.8416  36.662
   20.8845 1167.1625  35.304
   20.9044 1031.6727  33.194
   20.9244  764.7718  28.581
   20.9444  617.4485  25.682
   20.9644  477.5672  22.588
   20.9844  441.2971  21.715
   21.0044  388.9884  20.389
   21.0244  399.7248  20.669
   21.0444  421.1531  21.217
   21.0644  463.9678  22.271
   21.0844  522.8311  23.643
   21.1044  571.0159  24.710
   21.1244  552.9069  24.317
   21.1444  517.6799  23.531
   21.1644  454.6315  22.053
   21.1844  464.3173  22.288
   21.2044  399.1064  20.665
   21.2244  383.1048  20.248
   21.2444  400.2773  20.698
   21.2644  376.7791  20.082
   21.2844  351.1340  19.388
   21.3044  351.1784  19.391
   21.3244  323.3820  18.609
   21.3444  352.3383  19.425
   21.3644  349.1697  19.339
   21.3844  380.2791  20.183
   21.4044  414.6104  21.076
   21.4243  424.3062  21.322
   21.4443  495.0868  23.034
   21.4643  440.4905  21.728
   21.4843  470.5595  22.459
   21.5043  429.8826  21.467
   21.5243  429.9375  21.470
   21.5443  416.0525  21.122
   21.5643  396.8019  20.629
   21.5843  400.0704  20.715
   21.6043  520.2654  23.624
   21.6243  504.2394  23.259
   21.6443  624.4788  25.885
   21.6643  653.5333  26.483
   21.6843  795.2881  29.216
   21.7043  732.0598  28.032
   21.7243  623.7266  25.877
   21.7443  579.7862  24.950
   21.7643  460.6674  22.241
   21.7843  442.4696  21.799
   21.8043  389.8962  20.464
   21.8243  379.2043  20.183
   21.8443  347.0222  19.309
   21.8643  366.4084  19.842
   21.8843  341.7390  19.164
   21.9043  350.3816  19.406
   21.9243  351.5021  19.438
   21.9443  363.3735  19.765
   21.9642  360.1950  19.680
   21.9842  340.8856  19.146
   22.0042  350.6095  19.418
   22.0242  382.9241  20.295
   22.0442  365.7618  19.836
   22.0642  384.1001  20.329
   22.0842  399.2150  20.726
   22.1042  410.0292  21.006
   22.1242  368.1060  19.905
   22.1442  370.3072  19.966
   22.1642  355.2831  19.558
   22.1842  383.3255  20.316
   22.2042  370.4531  19.973
   22.2242  376.9641  20.150
   22.2442  321.0003  18.595
   22.2642  373.8315  20.068
   22.2842  380.3456  20.244
   22.3042  329.7482  18.850
   22.3242  338.4138  19.098
   22.3442  366.4838  19.875
   22.3642  347.1277  19.345
   22.3842  321.2973  18.612
   22.4042  332.1232  18.924
   22.4242  314.9118  18.429
   22.4442  403.3995  20.859
   22.4642  377.5630  20.182
   22.4842  387.3233  20.442
   22.5041  389.5327  20.502
   22.5241  427.3560  21.475
   22.5441  484.6173  22.871
   22.5641  480.3641  22.771
   22.5841  504.1797  23.331
   22.6041  457.8175  22.234
   22.6241  444.9200  21.920
   22.6441  417.9784  21.247
   22.6641  402.9117  20.862
   22.6841  388.9213  20.498
   22.7041  387.8931  20.472
   22.7241  356.6070  19.631
   22.7441  336.1202  19.060
   22.7641  389.1305  20.509
   22.7841  342.6972  19.248
   22.8041  388.1541  20.486
   22.8241  418.4845  21.273
   22.8441  443.4155  21.899
   22.8641  507.2926  23.425
   22.8841  479.2346  22.769
   22.9041  604.8045  25.581
   22.9241  749.8860  28.486
   22.9441  977.2567  32.521
   22.9641 1272.8790  37.118
   22.9841 1359.6541  38.365
   23.0041 1324.1106  37.863
   23.0240 1249.5752  36.784
   23.0440 1160.9418  35.458
   23.0640 1102.6118  34.558
   23.0840 1266.3347  37.037
   23.1040 1344.5133  38.166
   23.1240 1590.6648  41.516
   23.1440 1534.5294  40.780
   23.1640 1306.0458  37.624
   23.1840 1119.7759  34.840
   23.2040  809.8618  29.631
   23.2240  695.0369  27.452
   23.2440  481.4957  22.851
   23.2640  419.7397  21.337
   23.2840  443.6618  21.938
   23.3040  411.1759  21.121
   23.3240  392.7867  20.644
   23.3440  390.6705  20.590
   23.3640  370.1028  20.042
   23.3840  397.2912  20.767
   23.4040  429.9155  21.604
   23.4240  481.0073  22.853
   23.4440  503.8787  23.392
   23.4640  570.2003  24.886
   23.4840  652.8339  26.630
   23.5040  951.6835  32.154
   23.5240 1089.8071  34.411
   23.5440 1480.0831  40.105
   23.5639 1519.4143  40.637
   23.5839 1312.0087  37.764
   23.6039 1203.4762  36.171
   23.6239  984.0089  32.710
   23.6439  846.0392  30.332
   23.6639  733.0463  28.236
   23.6839  772.3080  28.984
   23.7039  842.0421  30.267
   23.7239  862.8330  30.640
   23.7439  843.3660  30.295
   23.7639  683.4941  27.274
   23.7839  624.8099  26.079
   23.8039  516.0305  23.702
   23.8239  418.1087  21.337
   23.8439  366.9855  19.991
   23.8639  370.3044  20.083
   23.8839  325.6959  18.835
   23.9039  335.5468  19.120
   23.9239  342.1316  19.308
   23.9439  334.5516  19.094
   23.9639  346.5877  19.436
   23.9839  335.7362  19.130
   24.0039  351.0465  19.563
   24.0239  383.8070  20.457
   24.0439  441.6586  21.946
   24.0639  521.3401  23.846
   24.0839  573.7736  25.018
   24.1038  625.1306  26.115
   24.1238  564.1160  24.810
   24.1438  506.3578  23.507
   24.1638  447.4919  22.100
   24.1838  398.4337  20.855
   24.2038  367.9213  20.042
   24.2238  283.8967  17.607
   24.2438  281.7531  17.541
   24.2638  292.7155  17.880
   24.2838  289.4802  17.783
   24.3038  284.0589  17.617
   24.3238  286.2849  17.687
   24.3438  289.6045  17.790
   24.3638  285.2740  17.658
   24.3838  285.3149  17.661
   24.4038  256.9296  16.760
   24.4238  272.2751  17.255
   24.4438  275.5952  17.361
   24.4638  289.8541  17.806
   24.4838  313.9627  18.533
   24.5038  297.5963  18.044
   24.5238  308.5819  18.376
   24.5438  303.1543  18.215
   24.5638  294.4415  17.952
   24.5838  275.8735  17.378
   24.6038  294.5266  17.958
   24.6237  274.8581  17.349
   24.6437  292.4213  17.896
   24.6637  304.5127  18.263
   24.6837  266.2134  17.078
   24.7037  252.0081  16.617
   24.7237  271.7700  17.257
   24.7437  330.9938  19.047
   24.7637  292.6762  17.911
   24.7837  274.0813  17.334
   24.8037  246.7091  16.447
   24.8237  258.8081  16.847
   24.8437  262.1363  16.956
   24.8637  274.2412  17.345
   24.8837  250.1445  16.566
   24.9037  242.5001  16.312
   24.9237  290.8232  17.865
   24.9437  321.5988  18.788
   24.9637  259.0732  16.864
   24.9837  277.7760  17.464
   25.0037  276.7187  17.432
   25.0237  262.4821  16.979
   25.0437  293.2762  17.948
   25.0637  305.4037  18.317
   25.0837  285.6714  17.717
   25.1037  228.5708  15.849
   25.1237  262.6753  16.991
   25.1437  269.3094  17.206
   25.1636  283.6410  17.659
   25.1836  236.4024  16.123
   25.2036  304.6193  18.303
   25.2236  296.9653  18.073
   25.2436  311.3097  18.505
   25.2636  297.0533  18.078
   25.2836  291.5955  17.913
   25.3036  283.9351  17.677
   25.3236  319.1992  18.744
   25.3436  321.4484  18.811
   25.3636  303.8800  18.291
   25.3836  325.9487  18.945
   25.4036  360.1389  19.916
   25.4236  365.7001  20.070
   25.4436  406.5164  21.162
   25.4636  471.5854  22.795
   25.4836  616.0178  26.055
   25.5036  764.9021  29.035
   25.5236 1086.8966  34.614
   25.5436 1499.3922  40.658
   25.5636 2239.5012  49.693
   25.5836 2926.8965  56.814
   25.6036 3215.2158  59.551
   25.6236 3085.5264  58.342
   25.6436 2483.5767  52.347
   25.6636 2122.0061  48.390
   25.6836 1555.0474  41.427
   25.7035  934.9343  32.125
   25.7235  636.9992  26.519
   25.7435  448.2854  22.248
   25.7635  380.9896  20.512
   25.7835  342.3902  19.446
   25.8035  292.7326  17.982
   25.8235  320.3973  18.814
   25.8435  303.8710  18.324
   25.8635  299.4964  18.193
   25.8835  311.7003  18.561
   25.9035  281.8994  17.653
   25.9235  295.2100  18.067
   25.9435  275.3500  17.450
   25.9635  266.5439  17.170
   25.9835  261.0536  16.993
   26.0035  292.0705  17.976
   26.0235  281.0500  17.635
   26.0435  266.7062  17.180
   26.0635  285.5630  17.778
   26.0835  312.1746  18.590
   26.1035  337.6873  19.336
   26.1235  372.0664  20.298
   26.1435  375.4458  20.391
   26.1635  381.0416  20.544
   26.1835  319.0604  18.801
   26.2035  360.1060  19.975
   26.2234  322.4825  18.904
   26.2434  308.1234  18.480
   26.2634  288.2172  17.874
   26.2834  263.8701  17.104
   26.3034  205.1406  15.082
   26.3234  238.4433  16.262
   26.3434  205.2038  15.087
   26.3634  231.8605  16.038
   26.3834  262.9637  17.081
   26.4034  217.5056  15.536
   26.4234  241.9568  16.387
   26.4434  250.8747  16.688
   26.4634  204.2836  15.060
   26.4834  213.1984  15.386
   26.5034  228.7796  15.940
   26.5234  215.4860  15.471
   26.5434  213.2975  15.393
   26.5634  221.1083  15.674
   26.5834  234.4778  16.142
   26.6034  234.5142  16.145
   26.6234  230.1042  15.993
   26.6434  245.7050  16.528
   26.6634  220.1682  15.647
   26.6834  239.1087  16.307
   26.7034  235.8091  16.195
   26.7234  256.9830  16.908
   26.7434  235.8826  16.200
   26.7633  254.8374  16.840
   26.7833  255.9902  16.879
   26.8033  287.1991  17.880
   26.8233  300.6042  18.294
   26.8433  297.3107  18.195
   26.8633  240.5587  16.368
   26.8833  241.7103  16.408
   26.9033  249.5465  16.674
   26.9233  231.7582  16.070
   26.9433  181.6467  14.228
   26.9633  173.8732  13.921
   26.9833  218.4905  15.606
   27.0033  226.3293  15.885
   27.0233  204.0630  15.085
   27.0433  206.3257  15.169
   27.0633  237.5909  16.279
   27.0833  195.2346  14.758
   27.1033  213.1183  15.421
   27.1233  184.1365  14.335
   27.1433  207.6049  15.222
   27.1633  214.3357  15.468
   27.1833  186.4569  14.428
   27.2033  214.4036  15.473
   27.2233  222.2556  15.755
   27.2433  273.6747  17.484
   27.2633  252.4911  16.795
   27.2833  217.8919  15.604
   27.3032  229.1021  16.001
   27.3232  215.7256  15.528
   27.3432  203.4627  15.082
   27.3632  241.5107  16.433
   27.3832  242.6674  16.473
   27.4032  220.3369  15.698
   27.4232  213.6602  15.460
   27.4432  240.5460  16.405
   27.4632  230.5135  16.061
   27.4832  238.3846  16.334
   27.5032  230.5872  16.066
   27.5232  174.6474  13.983
   27.5432  197.0697  14.855
   27.5632  207.1803  15.232
   27.5832  207.2136  15.235
   27.6032  171.3987  13.857
   27.6232  203.9188  15.115
   27.6432  219.6402  15.689
   27.6632  219.6755  15.691
   27.6832  244.3723  16.551
   27.7032  237.6847  16.324
   27.7232  237.7230  16.327
   27.7432  216.4525  15.581
   27.7632  190.6884  14.625
   27.7832  191.8411  14.670
   27.8032  206.4588  15.220
   27.8232  194.1476  14.761
   27.8431  171.7304  13.884
   27.8631  202.0685  15.061
   27.8831  193.1190  14.725
   27.9031  214.4866  15.520
   27.9231  176.3343  14.073
   27.9431  188.7196  14.560
   27.9631  201.1089  15.032
   27.9831  222.4918  15.812
   28.0031  230.3951  16.091
   28.0231  189.9664  14.613
   28.0431  229.3459  16.057
   28.0631  191.1527  14.661
   28.0831  200.1807  15.004
   28.1031  197.9638  14.922
   28.1231  194.6212  14.797
   28.1431  169.8994  13.826
   28.1631  178.9299  14.190
   28.1831  194.7166  14.804
   28.2031  198.1256  14.934
   28.2231  192.5286  14.723
   28.2431  213.9557  15.522
   28.2631  239.8949  16.437
   28.2831  202.7613  15.113
   28.3031  190.4016  14.646
   28.3231  185.9256  14.474
   28.3431  190.4642  14.651
   28.3630  176.9690  14.124
   28.3830  179.2529  14.216
   28.4030  191.6856  14.702
   28.4230  196.2282  14.876
   28.4430  188.3650  14.576
   28.4630  226.7521  15.994
   28.4830  191.8121  14.711
   28.5030  208.7711  15.349
   28.5230  174.9453  14.052
   28.5430  211.0979  15.437
   28.5630  191.9389  14.721
   28.5830  208.9093  15.359
   28.6030  198.7791  14.984
   28.6230  202.2009  15.113
   28.6430  206.7536  15.284
   28.6630  248.5975  16.760
   28.6830  274.6329  17.618
   28.7030  313.1109  18.813
   28.7230  377.6044  20.662
   28.7430  358.4447  20.132
   28.7630  322.3146  19.092
   28.7830  321.2372  19.062
   28.8030  351.8360  19.951
   28.8230  366.6041  20.367
   28.8430  444.7514  22.435
   28.8630  467.4631  23.002
   28.8830  387.1649  20.935
   28.9029  365.7166  20.349
   28.9229  329.5397  19.318
   28.9429  296.7487  18.333
   28.9629  240.1574  16.494
   28.9829  203.9414  15.201
   29.0029  214.1744  15.579
   29.0229  185.8756  14.514
   29.0429  179.1054  14.249
   29.0629  170.0653  13.886
   29.0829  188.2373  14.610
   29.1029  173.5250  14.029
   29.1229  183.7633  14.438
   29.1429  186.0633  14.529
   29.1629  208.7891  15.392
   29.1829  172.5070  13.992
   29.2029  171.4010  13.948
   29.2229  189.5947  14.671
   29.2429  196.4397  14.935
   29.2629  198.7442  15.024
   29.2829  230.5823  16.184
   29.3029  310.1459  18.771
   29.3229  301.1084  18.497
   29.3429  327.2978  19.286
   29.3629  289.8440  18.151
   29.3829  245.5566  16.708
   29.4029  239.9131  16.516
   29.4229  201.2883  15.130
   29.4428  204.7346  15.260
   29.4628  195.6685  14.920
   29.4828  197.9774  15.009
   29.5028  194.5971  14.881
   29.5228  158.2082  13.419
   29.5428  182.1412  14.400
   29.5628  201.5281  15.148
   29.5828  217.5053  15.738
   29.6028  223.2372  15.946
   29.6228  235.8061  16.390
   29.6428  254.0761  17.014
   29.6628  259.8173  17.207
   29.6828  305.4516  18.658
   29.7028  316.9033  19.007
   29.7228  263.3712  17.329
   29.7428  261.1357  17.256
   29.7628  234.9484  16.370
   29.7828  225.8629  16.051
   29.8028  192.8151  14.832
   29.8228  198.5538  15.052
   29.8428  162.0660  13.600
   29.8628  152.9619  13.214
   29.8828  149.5631  13.067
   29.9028  130.1765  12.192
   29.9228  151.8988  13.171
   29.9428  150.7827  13.124
   29.9627  163.3760  13.662
   29.9827  146.2639  12.928
   30.0027  161.1466  13.571
   30.0227  154.3160  13.281
   30.0427  171.4918  14.002
   30.0627  163.5172  13.674
   30.0827  184.1316  14.512
   30.1027  177.3003  14.241
   30.1227  179.6192  14.335
   30.1427  167.0633  13.826
   30.1627  137.3362  12.537
   30.1827  167.1213  13.831
   30.2027  168.2952  13.881
   30.2227  154.5837  13.304
   30.2427  139.7222  12.650
   30.2627  152.3466  13.210
   30.2827  158.1014  13.458
   30.3027  168.4417  13.893
   30.3227  162.7408  13.657
   30.3427  163.9154  13.707
   30.3627  183.4339  14.502
   30.3827  182.3192  14.459
   30.4027  181.2042  14.416
   30.4227  206.4713  15.389
   30.4427  204.2129  15.306
   30.4627  211.1334  15.565
   30.4827  228.3853  16.190
   30.5026  234.1645  16.395
   30.5226  213.5403  15.658
   30.5426  235.3949  16.441
   30.5626  246.9209  16.840
   30.5826  233.1802  16.366
   30.6026  217.1369  15.794
   30.6226  226.3677  16.128
   30.6426  222.9597  16.008
   30.6626  200.0093  15.163
   30.6826  228.7866  16.218
   30.7026  201.2297  15.212
   30.7226  203.5653  15.301
   30.7426  189.7978  14.776
   30.7626  212.8411  15.648
   30.7826  177.2071  14.280
   30.8026  222.1235  15.989
   30.8226  246.3359  16.839
   30.8426  317.7604  19.127
   30.8626  315.5136  19.061
   30.8826  330.5418  19.511
   30.9026  316.7773  19.102
   30.9226  291.4868  18.326
   30.9426  258.1210  17.246
   30.9626  208.6080  15.506
   30.9826  202.8814  15.293
   31.0026  200.6115  15.208
   31.0226  222.5570  16.020
   31.0425  235.2832  16.473
   31.0625  259.5497  17.303
   31.0825  271.1335  17.687
   31.1025  231.9470  16.360
   31.1225  245.8384  16.845
   31.1425  214.7140  15.744
   31.1625  206.6703  15.447
   31.1825  177.8374  14.331
   31.2025  175.5592  14.240
   31.2225  180.2114  14.428
   31.2425  190.6423  14.841
   31.2625  201.0770  15.244
   31.2825  247.3458  16.908
   31.3025  250.8582  17.029
   31.3225  298.3088  18.572
   31.3425  255.5739  17.192
   31.3625  271.8128  17.731
   31.3825  248.7245  16.963
   31.4025  254.5545  17.162
   31.4225  207.1520  15.483
   31.4425  194.4569  15.003
   31.4625  207.2265  15.489
   31.4825  188.7374  14.783
   31.5025  178.3484  14.372
   31.5225  205.0219  15.410
   31.5425  186.5224  14.700
   31.5624  202.7781  15.329
   31.5824  205.1326  15.419
   31.6024  184.3049  14.616
   31.6224  215.6409  15.812
   31.6424  182.0524  14.529
   31.6624  176.2864  14.299
   31.6824  149.6386  13.175
   31.7024  135.7433  12.549
   31.7224  139.2491  12.712
   31.7424  169.4504  14.024
   31.7624  169.4812  14.026
   31.7824  169.5119  14.029
   31.8024  164.8977  13.838
   31.8224  138.2140  12.670
   31.8424  142.8858  12.884
   31.8624  170.7970  14.087
   31.8824  154.5587  13.402
   31.9024  174.3461  14.235
   31.9224  161.5901  13.706
   31.9424  169.7587  14.049
   31.9624  160.4861  13.661
   31.9824  139.5786  12.742
   32.0024  131.4605  12.367
   32.0224  153.5925  13.369
   32.0424  146.6378  13.064
   32.0624  143.1726  12.909
   32.0824  133.8850  12.485
   32.1023  129.2517  12.268
   32.1223  152.5682  13.330
   32.1423  143.2773  12.919
   32.1623  142.1385  12.869
   32.1823  144.4951  12.976
   32.2023  152.6801  13.340
   32.2223  135.2224  12.555
   32.2423  156.2339  13.497
   32.2623  152.7642  13.347
   32.2823  131.7979  12.399
   32.3023  138.8215  12.726
   32.3223  135.3467  12.567
   32.3423  141.2066  12.837
   32.3623  141.2327  12.839
   32.3823  180.9512  14.534
   32.4023  143.6200  12.950
   32.4223  128.4643  12.249
   32.4423  137.8326  12.689
   32.4623  141.3630  12.851
   32.4823  134.3780  12.531
   32.5023  153.1024  13.377
   32.5223  148.4550  13.173
   32.5423  135.6218  12.592
   32.5623  152.0181  13.333
   32.5823  130.9937  12.378
   32.6023  155.5838  13.491
   32.6223  160.2927  13.695
   32.6422  135.7474  12.604
   32.6622  155.6703  13.498
   32.6822  133.4564  12.499
   32.7022  141.6774  12.880
   32.7222  166.2970  13.955
   32.7422  142.9014  12.938
   32.7622  160.5012  13.713
   32.7822  165.2181  13.914
   32.8022  138.2934  12.731
   32.8222  152.3855  13.365
   32.8422  140.6897  12.843
   32.8622  152.4423  13.370
   32.8822  144.2608  13.008
   32.9022  160.7108  13.730
   32.9222  154.8743  13.480
   32.9422  158.4238  13.635
   32.9622  154.9322  13.485
   32.9822  177.2663  14.426
   33.0022  185.5186  14.759
   33.0222  151.4961  13.338
   33.0422  185.5881  14.765
   33.0622  166.8257  14.000
   33.0822  129.2554  12.324
   33.1022  149.2592  13.245
   33.1222  177.4990  14.445
   33.1422  188.1137  14.872
   33.1621  164.6303  13.914
   33.1821  164.6612  13.916
   33.2021  199.9834  15.338
   33.2221  218.8466  16.047
   33.2421  198.8819  15.299
   33.2621  204.8046  15.526
   33.2821  155.3983  13.526
   33.3021  202.5268  15.443
   33.3221  209.6313  15.713
   33.3421  163.7317  13.888
   33.3621  147.2686  13.172
   33.3821  133.1559  12.526
   33.4021  154.3958  13.490
   33.4221  170.9284  14.195
   33.4421  162.7075  13.851
   33.4621  156.8420  13.600
   33.4821  172.2050  14.252
   33.5021  188.7536  14.922
   33.5221  173.4503  14.306
   33.5421  166.4022  14.014
   33.5621  140.4654  12.876
   33.5821  145.2145  13.094
   33.6021  141.6996  12.935
   33.6221  155.8992  13.569
   33.6421  129.9407  12.389
   33.6621  134.6914  12.615
   33.6821  127.6267  12.281
   33.7020  120.5592  11.937
   33.7220  121.7643  11.998
   33.7420  156.0772  13.585
   33.7620  121.8107  12.002
   33.7820  132.4797  12.518
   33.8020  145.5188  13.121
   33.8220  144.3633  13.070
   33.8420  129.0050  12.356
   33.8620  146.7860  13.182
   33.8820  139.7102  12.861
   33.9020  165.7896  14.012
   33.9220  127.9193  12.309
   33.9420  175.3304  14.412
   33.9620  213.2805  15.897
   33.9820  233.4684  16.634
   34.0020  269.0736  17.859
   34.0220  237.1147  16.767
   34.0420  230.0454  16.516
   34.0620  218.2293  16.088
   34.0820  217.0850  16.047
   34.1020  207.6348  15.696
   34.1220  183.9405  14.774
   34.1420  202.9670  15.521
   34.1620  166.2038  14.047
   34.1820  182.8594  14.735
   34.2020  160.3297  13.799
   34.2220  136.6035  12.738
   34.2419  154.4510  13.546
   34.2619  137.8444  12.799
   34.2819  153.3220  13.499
   34.3019  159.2955  13.761
   34.3219  158.1373  13.712
   34.3419  162.9248  13.920
   34.3619  159.3880  13.769
   34.3819  162.9879  13.925
   34.4019  186.8179  14.910
   34.4219  193.9950  15.195
   34.4419  174.9864  14.433
   34.4619  165.4954  14.037
   34.4819  191.7261  15.110
   34.5019  183.4258  14.781
   34.5219  173.9310  14.395
   34.5419  140.6016  12.943
   34.5619  150.1631  13.378
   34.5819  135.8883  12.727
   34.6019  132.3380  12.561
   34.6219  147.8658  13.279
   34.6419  114.4991  11.686
   34.6619  114.5214  11.688
   34.6819  104.9984  11.193
   34.7019  118.1462  11.874
   34.7219  134.8800  12.688
   34.7419  140.8757  12.969
   34.7619  133.7386  12.637
   34.7818  120.6270  12.003
   34.8018  127.8179  12.357
   34.8218  113.5054  11.645
   34.8418  156.5486  13.678
   34.8618  130.2834  12.479
   34.8818  151.8279  13.473
   34.9018  126.7473  12.311
   34.9218  136.3398  12.769
   34.9418  136.3665  12.772
   34.9618  120.8397  12.024
   34.9818  124.4534  12.204
   35.0018  140.0375  12.946
   35.0218  120.9109  12.031
   35.0418  113.7504  11.671
   35.0618  148.5033  13.336
   35.0818  125.7735  12.274
   35.1018  128.1944  12.393
   35.1218  149.7893  13.398
   35.1418  158.2087  13.770
   35.1618  169.0289  14.235
   35.1818  175.0573  14.488
   35.2018  152.3059  13.515
   35.2218  158.3335  13.781
   35.2418  135.5698  12.753
   35.2618  164.3958  14.045
   35.2818  186.0320  14.942
   35.3017  146.4540  13.259
   35.3217  177.7006  14.607
   35.3417  187.3431  14.999
   35.3617  147.7420  13.321
   35.3817  146.5699  13.270
   35.4017  142.9940  13.108
   35.4217  187.4915  15.011
   35.4417  141.8486  13.058
   35.4617  153.9002  13.603
   35.4817  140.7023  13.008
   35.5017  146.7443  13.286
   35.5217  127.5245  12.386
   35.5417  175.6818  14.540
   35.5617  178.1238  14.642
   35.5817  154.0836  13.619
   35.6017  156.5223  13.728
   35.6217  140.8981  13.026
   35.6417  157.7892  13.786
   35.6617  165.0490  14.101
   35.6817  173.5167  14.460
   35.7017  179.5774  14.712
   35.7217  156.7095  13.744
   35.7417  143.4781  13.153
   35.7617  142.3008  13.100
   35.7817  124.2365  12.241
   35.8017  152.0090  13.542
   35.8217  167.7260  14.226
   35.8416  136.3799  12.830
   35.8616  130.3715  12.545
   35.8816  146.0936  13.281
   35.9016  152.1610  13.556
   35.9216  132.8655  12.668
   35.9416  146.1814  13.289
   35.9616  129.2937  12.499
   35.9816  140.1970  13.017
   36.0016  157.1489  13.783
   36.0216  174.1075  14.509
   36.0416  205.5849  15.768
   36.0616  171.7584  14.414
   36.0816  181.4714  14.817
   36.1016  187.5581  15.065
   36.1216  186.3856  15.019
   36.1416  169.4755  14.323
   36.1616  187.6714  15.074
   36.1816  148.9563  13.431
   36.2016  138.0849  12.933
   36.2216  158.7085  13.866
   36.2416  140.5641  13.051
   36.2616  145.4405  13.277
   36.2816  126.0738  12.363
   36.3016  149.1367  13.447
   36.3216  147.9541  13.395
   36.3416  163.7527  14.094
   36.3616  144.3742  13.235
   36.3815  152.8976  13.621
   36.4015  174.7754  14.565
   36.4215  194.2342  15.356
   36.4415  225.8430  16.560
   36.4615  236.8189  16.959
   36.4815  212.5728  16.069
   36.5015  200.4664  15.606
   36.5215  183.4944  14.933
   36.5415  181.1007  14.836
   36.5615  145.8825  13.317
   36.5815  167.7990  14.284
   36.6015  167.8331  14.287
   36.6215  147.1879  13.381
   36.6415  128.9677  12.526
   36.6615  120.4755  12.108
   36.6815  125.3687  12.353
   36.7015  129.0465  12.534
   36.7215  119.3314  12.054
   36.7415  133.9707  12.774
   36.7615  126.6890  12.423
   36.7815  164.4857  14.157
   36.8015  127.9594  12.488
   36.8215  137.7368  12.957
   36.8415  137.7649  12.960
   36.8615  142.6707  13.190
   36.8815  154.8964  13.745
   36.9014  154.9279  13.748
   36.9214  185.4635  15.043
   36.9414  163.5341  14.127
   36.9614  174.5535  14.597
   36.9814  167.2638  14.290
   37.0014  159.9712  13.977
   37.0214  158.7825  13.926
   37.0414  127.0521  12.458
   37.0614  146.6286  13.385
   37.0814  144.2144  13.276
   37.1014  157.6905  13.884
   37.1214  150.3869  13.560
   37.1414  136.9658  12.942
   37.1614  130.8781  12.652
   37.1814  146.8094  13.402
   37.2014  157.8526  13.898
   37.2214  159.1090  13.955
   37.2414  172.6076  14.536
   37.2614  143.2570  13.244
   37.2814  144.5112  13.303
   37.3014  150.6656  13.585
   37.3214  135.9946  12.908
   37.3414  118.8666  12.069
   37.3614  120.1168  12.134
   37.3814  150.7900  13.596
   37.4014  129.9760  12.624
   37.4214  144.7201  13.323
   37.4413  148.4299  13.494
   37.4613  142.3259  13.215
   37.4813  146.0369  13.387
   37.5013  157.1142  13.887
   37.5213  135.0480  12.876
   37.5413  171.9149  14.529
   37.5613  186.6891  15.142
   37.5813  234.6382  16.978
   37.6013  297.3519  19.115
   37.6213  309.7034  19.509
   37.6413  310.9969  19.552
   37.6613  296.3076  19.087
   37.6813  280.3824  18.569
   37.7013  287.8206  18.815
   37.7213  279.2686  18.536
   37.7413  238.7197  17.139
   37.7613  217.8463  16.374
   37.7813  210.5054  16.098
   37.8013  210.5493  16.101
   37.8213  179.8046  14.881
   37.8413  156.4380  13.882
   37.8613  149.0783  13.553
   37.8813  133.0893  12.807
   37.9013  136.8148  12.986
   37.9213  126.9807  12.512
   37.9413  149.2027  13.564
   37.9613   99.9003  11.100
   37.9812  119.6586  12.149
   38.0012  120.9174  12.215
   38.0212  124.6451  12.403
   38.0412  117.2649  12.031
   38.0612  160.5013  14.077
   38.0812  139.5419  13.127
   38.1012  154.3928  13.809
   38.1212  165.5438  14.301
   38.1412  129.7443  12.662
   38.1612  145.8384  13.426
   38.1812  142.1605  13.257
   38.2012  142.1903  13.259
   38.2212  132.3266  12.792
   38.2412  137.3021  13.032
   38.2612  118.7727  12.122
   38.2812  139.8348  13.155
   38.3012  128.7245  12.622
   38.3212  136.1796  12.984
   38.3412  115.1579  11.941
   38.3612  134.9984  12.930
   38.3812  131.3104  12.754
   38.4012  130.0990  12.696
   38.4212  126.4085  12.516
   38.4412  132.6330  12.822
   38.4612  140.0999  13.179
   38.4812  130.2087  12.707
   38.5011  135.1974  12.950
   38.5211  142.6696  13.304
   38.5411  142.6997  13.307
   38.5611  131.5597  12.778
   38.5811  147.7255  13.542
   38.6011  114.2321  11.910
   38.6211  132.8850  12.846
   38.6411  149.0614  13.607
   38.6611  141.6383  13.266
   38.6811  139.1829  13.152
   38.7011  120.5678  12.242
   38.7211  123.0798  12.370
   38.7411  138.0278  13.101
   38.7611  133.0820  12.866
   38.7811  125.6461  12.502
   38.8011  103.2757  11.336
   38.8211  146.8568  13.519
   38.8411  110.7884  11.744
   38.8611  107.0767  11.546
   38.8811  104.6087  11.414
   38.9011  122.0694  12.331
   38.9211  140.7834  13.244
   38.9411  124.6136  12.461
   38.9611  129.6257  12.711
   38.9811  135.8866  13.016
   39.0011  152.1257  13.773
   39.0211  138.4389  13.140
   39.0410  124.7462  12.475
   39.0610  148.4796  13.611
   39.0810  143.5192  13.383
   39.1010  127.3225  12.607
   39.1210  146.0775  13.505
   39.1410  133.6208  12.918
   39.1610  138.6455  13.160
   39.1810  141.1738  13.281
   39.2010  142.4535  13.342
   39.2210  128.7355  12.685
   39.2410  155.0157  13.921
   39.2610  112.5355  11.862
   39.2810  116.3115  12.061
   39.3010  106.3290  11.533
   39.3210   97.5934  11.050
   39.3410  112.6318  11.872
   39.3610   98.8869  11.126
   39.3810  135.2161  13.011
   39.4010  102.6861  11.340
   39.4210  113.9810  11.948
   39.4410  116.5111  12.082
   39.4610  117.7891  12.149
   39.4810  120.3211  12.280
   39.5010  127.8686  12.661
   39.5210  122.8806  12.413
   39.5410  151.7525  13.796
   39.5610  112.8980  11.900
   39.5809  109.1581  11.703
   39.6009  125.4961  12.550
   39.6209  116.7365  12.105
   39.6409  104.2066  11.438
   39.6609  116.7868  12.110
   39.6809  108.0196  11.648
   39.7009  109.2992  11.718
   39.7209  103.0399  11.379
   39.7409  109.3463  11.723
   39.7609  104.3414  11.453
   39.7809  104.3640  11.455
   39.8009  106.9018  11.595
   39.8209  115.7305  12.066
   39.8409  123.3048  12.456
   39.8609  110.7466  11.806
   39.8809  132.1694  12.898
   39.9009  108.2764  11.676
   39.9209  119.6335  12.274
   39.9409  123.4382  12.469
   39.9609   89.4490  10.616
   39.9809  118.4511  12.217
   40.0009  128.5599  12.729
   40.0209  123.5451  12.480
   40.0409  113.4844  11.962
   40.0609  124.8599  12.549
   40.0809  124.8870  12.552
   40.1008  118.6052  12.233
   40.1208  112.3208  11.906
   40.1408  165.3620  14.448
   40.1608  152.7721  13.888
   40.1808  132.5996  12.940
   40.2008  191.9955  15.573
   40.2208  217.3053  16.569
   40.2408  199.6611  15.884
   40.2608  214.8719  16.480
   40.2808  197.2195  15.790
   40.3008  223.8170  16.823
   40.3208  211.2180  16.345
   40.3408  211.2640  16.348
   40.3608  178.4115  15.025
   40.3808  186.0440  15.345
   40.4008  153.1716  13.925
   40.4208  154.4712  13.985
   40.4408  163.3700  14.384
   40.4608  154.5387  13.991
   40.4808  158.3734  14.165
   40.5008  131.7954  12.924
   40.5208  157.1750  14.115
   40.5408  110.3001  11.825
   40.5608  150.9033  13.833
   40.5808  130.6423  12.873
   40.6008  119.2531  12.300
   40.6208  116.7413  12.171
   40.6407  114.2283  12.041
   40.6607  106.6365  11.635
   40.6807   88.8832  10.624
   40.7007  127.0038  12.700
   40.7207  118.1395  12.250
   40.7407  110.5418  11.851
   40.7607  118.1913  12.256
   40.7807  129.6576  12.838
   40.8007  127.1432  12.714
   40.8207  120.8126  12.395
   40.8407  101.7592  11.377
   40.8607  143.7665  13.524
   40.8807  122.1648  12.468
   40.9007  129.8286  12.855
   40.9207  110.7605  11.875
   40.9407  119.6986  12.346
   40.9607  106.9883  11.673
   40.9807  109.5597  11.814
   41.0007  103.2127  11.468
   41.0207  121.0786  12.422
   41.0407  116.0061  12.161
   41.0607  130.0575  12.878
   41.0807  126.2601  12.690
   41.1007  136.4930  13.195
   41.1207  144.1786  13.563
   41.1407  130.1723  12.889
   41.1607  126.3716  12.701
   41.1806  159.5951  14.275
   41.2006  141.7518  13.454
   41.2206  118.7913  12.318
   41.2406  116.2623  12.188
   41.2606  118.8438  12.324
   41.2806  117.5919  12.260
   41.3006  126.5671  12.720
   41.3206  130.4313  12.915
   41.3406  138.1344  13.292
   41.3606  116.4168  12.204
   41.3806  134.3568  13.112
   41.4006  163.8236  14.480
   41.4206  142.0973  13.487
   41.4406  129.3244  12.868
   41.4606  143.4411  13.554
   41.4806  151.1589  13.915
   41.5006  130.6918  12.940
   41.5206  129.4392  12.880
   41.5406  137.1592  13.260
   41.5606  130.7789  12.949
   41.5806  150.0444  13.872
   41.6006  130.8370  12.955
   41.6206  139.8471  13.395
   41.6406  141.1615  13.459
   41.6606  157.8794  14.236
   41.6806  174.6046  14.972
   41.7006  234.9983  17.372
   41.7205  206.7930  16.298
   41.7405  201.7001  16.097
   41.7605  186.3251  15.473
   41.7805  201.7901  16.105
   41.8005  168.4101  14.714
   41.8205  155.5891  14.144
   41.8405  194.2082  15.804
   41.8605  165.9500  14.611
   41.8805  176.2808  15.061
   41.9005  154.4411  14.098
   41.9205  150.6136  13.924
   41.9405  137.7715  13.319
   41.9605  155.8325  14.167
   41.9805  146.8502  13.754
   42.0005  150.7484  13.937
   42.0205  143.0497  13.578
   42.0405  158.5500  14.296
   42.0605  162.4534  14.472
   42.0805  141.8562  13.525
   42.1005  123.8295  12.638
   42.1205  141.9197  13.532
   42.1405  145.8229  13.718
   42.1605  122.6220  12.581
   42.1805  134.2689  13.166
   42.2005  127.8423  12.849
   42.2205  130.4543  12.981
   42.2404  116.2723  12.256
   42.2604  121.4673  12.528
   42.2804  143.4669  13.617
   42.3004  152.5487  14.043
   42.3204  165.5137  14.629
   42.3404  181.0713  15.303
   42.3604  216.0408  16.718
   42.3804  222.5591  16.970
   42.4004  200.6071  16.113
   42.4204  222.6592  16.978
   42.4404  196.8129  15.964
   42.4604  186.4963  15.541
   42.4804  176.1751  15.107
   42.5004  196.9459  15.974
   42.5204  204.7662  16.290
   42.5404  174.9979  15.061
   42.5604  200.9688  16.142
   42.5804  177.6706  15.179
   42.6004  167.3334  14.733
   42.6204  131.0425  13.039
   42.6404  144.0496  13.673
   42.6604  136.2939  13.301
   42.6804  122.0430  12.588
   42.7004  131.1609  13.051
   42.7204  149.3754  13.929
   42.7404  164.9997  14.641
   42.7604  165.0370  14.645
   42.7803  129.9797  12.998
   42.8003  166.4116  14.709
   42.8203  128.7381  12.939
   42.8403  124.8652  12.744
   42.8603  152.2139  14.072
   42.8803  131.4281  13.078
   42.9003  139.2673  13.463
   42.9203  140.6007  13.529
   42.9403  148.4454  13.903
   42.9603  145.8742  13.784
   42.9803  134.1826  13.221
   43.0003  140.7283  13.542
   43.0203  164.2202  14.630
   43.0403  109.5050  11.948
   43.0603  139.5202  13.488
   43.0803  126.5096  12.845
   43.1003  147.4107  13.867
   43.1203  150.0538  13.993
   43.1403  159.2237  14.415
   43.1603  186.6735  15.610
   43.1803  156.6847  14.303
   43.2003  173.6984  15.062
   43.2203  142.3867  13.638
   43.2403  145.0323  13.766
   43.2603  125.4619  12.805
   43.2803  121.5689  12.606
   43.3003  113.7517  12.195
   43.3202  145.1643  13.778
   43.3402  136.0408  13.340
   43.3602  129.5299  13.018
   43.3802  137.4116  13.410
   43.4002  142.6788  13.666
   43.4202  149.2578  13.979
   43.4402  137.5056  13.419
   43.4602  132.2975  13.164
   43.4802  129.7074  13.036
   43.5002  136.2894  13.364
   43.5202  135.0097  13.303
   43.5402  108.8191  11.944
   43.5602  125.8918  12.849
   43.5802  141.6607  13.631
   43.6002  139.0692  13.508
   43.6202  164.0342  14.672
   43.6402  156.1963  14.318
   43.6602  126.0359  12.863
   43.6802  126.0648  12.866
   43.7002  151.0497  14.085
   43.7202  119.5536  12.533
   43.7402  151.1189  14.092
   43.7602  152.4679  14.156
   43.7802  161.7056  14.581
   43.8002  167.0026  14.819
   43.8202  164.4104  14.705
   43.8401  180.2349  15.399
   43.8601  203.9622  16.383
   43.8801  169.7881  14.949
   43.9001  169.8271  14.952
   43.9201  156.6982  14.365
   43.9401  168.5880  14.901
   43.9601  184.4355  15.588
   43.9801  205.5611  16.458
   44.0001  181.8843  15.483
   44.0201  171.3797  15.031
   44.0401  167.4633  14.860
   44.0601  145.0803  13.833
   44.0801  146.4329  13.899
   44.1001  154.3837  14.273
   44.1201  146.5003  13.905
   44.1401  135.9731  13.398
   44.1601  128.0818  13.005
   44.1801  120.1869  12.599
   44.2001  141.3512  13.665
   44.2201  117.5996  12.466
   44.2401   96.4804  11.292
   44.2601  122.9417  12.748
   44.2801  107.1030  11.900
   44.3001  115.0630  12.336
   44.3201  138.9012  13.555
   44.3401  109.8235  12.055
   44.3601  128.3776  13.035
   44.3800  121.7881  12.697
   44.4000  133.7331  13.307
   44.4200  119.1956  12.564
   44.4400  140.4184  13.639
   44.4600  132.5009  13.250
   44.4800  145.7847  13.900
   44.5000  144.4928  13.840
   44.5200  149.8299  14.095
   44.5400  163.1269  14.709
   44.5600  153.8789  14.287
   44.5800  143.2997  13.789
   44.6000  155.2773  14.355
   44.6200  152.6584  14.235
   44.6400  131.4494  13.211
   44.6600  144.7607  13.866
   44.6800  166.0484  14.852
   44.7000  148.8139  14.062
   44.7200  136.8874  13.488
   44.7400  123.6260  12.819
   44.7600  120.9955  12.684
   44.7800  119.6936  12.617
   44.8000  152.9773  14.265
   44.8200  127.7325  13.037
   44.8400  133.0856  13.309
   44.8600  123.7983  12.837
   44.8800  131.8159  13.248
   44.9000  125.1877  12.912
   44.9199  118.5562  12.567
   44.9399  121.2485  12.710
   44.9599  138.6020  13.591
   44.9799  117.3059  12.505
   44.9999  130.6665  13.199
   45.0199  148.0343  14.051
   45.0399  114.7199  12.371
   45.0599  172.1199  15.154
   45.0799  164.1526  14.801
   45.0999  170.8653  15.102
   45.1199  149.5420  14.130
   45.1399  148.2413  14.070
   45.1599  169.6490  15.054
   45.1799  172.3608  15.176
   45.1999  159.0366  14.579
   45.2199  156.4002  14.459
   45.2399  155.0996  14.401
   45.2599  173.8591  15.248
   45.2799  184.6012  15.714
   45.2999  147.1802  14.033
   45.3199  177.9959  15.434
   45.3399  182.0533  15.611
   45.3599  195.4853  16.178
   45.3799  159.3711  14.610
   45.3999  179.5019  15.507
   45.4199  186.2432  15.797
   45.4398  175.5650  15.339
   45.4598  162.2011  14.746
   45.4798  179.6697  15.521
   45.4998  166.3004  14.934
   45.5198  142.1933  13.811
   45.5398  150.2771  14.200
   45.5598  150.3123  14.203
   45.5798  177.1953  15.423
   45.5998  165.1525  14.891
   45.6198  118.1856  12.599
   45.6398  137.0200  13.567
   45.6598  131.6775  13.301
   45.6798  129.0204  13.168
   45.6998  119.6407  12.682
   45.7198  155.9728  14.482
   45.7398  141.2154  13.781
   45.7598  130.4868  13.249
   45.7798  156.0827  14.492
   45.7998  138.6232  13.659
   45.8198  184.4256  15.757
   45.8398  164.2716  14.872
   45.8598  150.8422  14.253
   45.8798  149.5305  14.193
   45.8998  160.3452  14.699
   45.9198  138.8188  13.678
   45.9398  161.7686  14.767
   45.9598  132.1421  13.348
   45.9797  156.4497  14.526
   45.9997  144.3454  13.954
   46.0197  168.6674  15.086
   46.0397  170.0568  15.150
   46.0597  170.0968  15.153
   46.0797  193.0919  16.147
   46.0997  191.7868  16.094
   46.1197  160.7606  14.737
   46.1397  154.0422  14.427
   46.1597  144.6176  13.981
   46.1797  160.8743  14.747
   46.1997  163.6166  14.874
   46.2197  128.4896  13.183
   46.2397  167.7523  15.065
   46.2597  127.1971  13.119
   46.2797  139.4084  13.736
   46.2997  129.9648  13.264
   46.3197  135.4119  13.541
   46.3397  115.1273  12.487
   46.3597  140.8949  13.816
   46.3797  135.5079  13.551
   46.3997  139.6061  13.756
   46.4197  107.1018  12.050
   46.4397  136.9600  13.628
   46.4597  103.0834  11.824
   46.4797  135.6681  13.567
   46.4997  113.9882  12.437
   46.5196  116.7296  12.587
   46.5396  128.9760  13.233
   46.5596  134.4384  13.512
   46.5796  138.5451  13.718
   46.5996  114.1230  12.452
   46.6196  144.0464  13.991
   46.6396  122.3325  12.895
   46.6596  127.7998  13.182
   46.6796  140.0692  13.801
   46.6996   99.2958  11.622
   46.7196  130.6118  13.331
   46.7396  137.4470  13.676
   46.7596  144.2856  14.014
   46.7796  130.7047  13.340
   46.7996  137.5449  13.686
   46.8196  138.9397  13.757
   46.8396  141.6976  13.895
   46.8596   99.4844  11.644
   46.8796  130.8599  13.356
   46.8996  109.0758  12.195
   46.9196  139.1047  13.773
   46.9396  137.7736  13.709
   46.9596  126.8910  13.158
   46.9796  159.6750  14.762
   46.9996  170.6335  15.262
   47.0196  163.8471  14.957
   47.0395  254.0230  18.626
   47.0595  244.5212  18.276
   47.0795  222.7175  17.445
   47.0995  174.9363  15.462
   47.1195  195.4832  16.347
   47.1395  195.5297  16.351
   47.1595  232.5032  17.832
   47.1795  205.1987  16.754
   47.1995  184.7228  15.898
   47.2195  195.7160  16.367
   47.2395  175.2281  15.488
   47.2595  184.8549  15.910
   47.2795  132.8533  13.489
   47.2995  146.5845  14.171
   47.3195  150.7302  14.372
   47.3395  167.2134  15.139
   47.3595  148.0603  14.247
   47.3795  138.4968  13.781
   47.3995  145.3877  14.121
   47.4195  157.7696  14.712
   47.4395  156.4350  14.651
   47.4595  175.6883  15.529
   47.4795  175.7302  15.533
   47.4995  181.2650  15.777
   47.5195  175.8141  15.540
   47.5395  157.9958  14.733
   47.5595  169.0271  15.241
   47.5794  144.3257  14.085
   47.5994  156.7340  14.679
   47.6194  148.5203  14.291
   47.6394  167.8130  15.193
   47.6594  167.8532  15.197
   47.6794  169.2695  15.263
   47.6994  165.1805  15.079
   47.7194  167.9736  15.208
   47.7394  155.6194  14.639
   47.7594  159.7891  14.836
   47.7794  140.5378  13.915
   47.7994  159.8656  14.843
   47.8194  135.0912  13.646
   47.8394  165.4574  15.104
   47.8594  151.7056  14.465
   47.8794  158.6393  14.793
   47.8994  115.9035  12.646
   47.9194  138.0134  13.801
   47.9394  106.2958  12.114
   47.9594  143.6027  14.081
   47.9794  136.7315  13.742
   47.9994  109.1352  12.279
   48.0194  111.9249  12.436
   48.0394  113.3339  12.516
   48.0594  121.6558  12.969
   48.0794  150.7234  14.437
   48.0994  143.8440  14.105
   48.1193  139.7280  13.903
   48.1393  128.6914  13.345
   48.1593  160.5568  14.907
   48.1793  141.2132  13.982
   48.1993  149.5557  14.391
   48.2193  145.4363  14.193
   48.2393  151.0130  14.464
   48.2593  159.3640  14.861
   48.2793  155.2440  14.669
   48.2993  151.1219  14.475
   48.3193  142.8376  14.074
   48.3393  137.3236  13.802
   48.3593  142.9064  14.081
   48.3793  152.6551  14.555
   48.3993  162.4086  15.015
   48.4193  147.1749  14.295
   48.4393  149.9878  14.433
   48.4593  158.3586  14.832
   48.4793  163.9545  15.093
   48.4993  155.6553  14.708
   48.5193  169.5939  15.354
   48.5393  190.4915  16.275
   48.5593  208.6176  17.034
   48.5793  237.8813  18.191
   48.5993  179.4975  15.804
   48.6193  162.8393  15.055
   48.6393  190.7211  16.294
   48.6592  162.9176  15.062
   48.6792  143.4578  14.135
   48.6992  172.7481  15.513
   48.7192  140.7401  14.004
   48.7392  154.7120  14.685
   48.7592  153.3552  14.622
   48.7792  136.6585  13.805
   48.7992  152.0344  14.562
   48.8192  147.8857  14.364
   48.8392  132.5711  13.602
   48.8592  117.2490  12.793
   48.8792  143.8044  14.169
   48.8992  136.8566  13.825
   48.9192  129.9055  13.471
   48.9392  124.3482  13.181
   48.9592  148.1359  14.388
   48.9792  117.4191  12.811
   48.9992  153.8002  14.664
   49.0192  131.4610  13.559
   49.0392  137.0882  13.848
   49.0592  127.3270  13.347
   49.0792  142.7527  14.135
   49.0992  148.3867  14.413
   49.1192  169.4258  15.402
   49.1392  179.2706  15.845
   49.1592  173.7105  15.600
   49.1791  170.9498  15.477
   49.1991  170.9912  15.481
   49.2191  152.8078  14.636
   49.2391  161.2583  15.037
   49.2591  164.1025  15.171
   49.2791  152.9188  14.647
   49.2991  116.4710  12.784
   49.3191  161.4145  15.052
   49.3391  160.0497  14.990
   49.3591  127.7899  13.396
   49.3791  130.6301  13.546
   49.3991  140.4965  14.050
   49.4191  143.3412  14.193
   49.4391  133.5364  13.701
   49.4591  125.1329  13.264
   49.4791  135.0075  13.779
   49.4991  144.8869  14.276
   49.5191  147.7361  14.418
   49.5391  163.2528  15.158
   49.5591  159.0693  14.964
   49.5791  205.5731  17.013
   49.5991  190.1308  16.364
   49.6191  177.4985  15.813
   49.6391  205.7228  17.026
   49.6591  170.5377  15.503
   49.6791  163.5303  15.183
   49.6991  157.9297  14.923
   49.7190  166.4304  15.321
   49.7390  172.1139  15.582
   49.7590  159.4557  15.000
   49.7790  162.3174  15.136
   49.7990  138.3562  13.976
   49.8190  124.2684  13.247
   49.8390  129.9486  13.548
   49.8590  118.6776  12.949
   49.8790  134.2513  13.774
   49.8990  127.2163  13.410
   49.9190  137.1443  13.925
   49.9390  145.6629  14.353
   49.9590  108.9201  12.413
   49.9790  140.0742  14.078
   49.9990  134.4473  13.794
   50.0190  130.2333  13.578
   50.0390  128.8490  13.507
   50.0590  152.9570  14.718
   50.0790  134.5782  13.807
   50.0990  150.1975  14.588
   50.1190  127.5572  13.446
   50.1390  155.9412  14.868
   50.1590  126.2014  13.377
   50.1790  147.5072  14.464
   50.1990  104.9826  12.204
   50.2190  122.0365  13.160
   50.2390  114.9694  12.774
   50.2589  130.6142  13.617
   50.2789  117.8654  12.937
   50.2989   93.7471  11.539
   50.3189  146.3380  14.419
   50.3389  110.8461  12.551
   50.3589  113.7160  12.714
   50.3789  133.6489  13.785
   50.3989  100.9722  11.983
   50.4189  122.3341  13.192
   50.4389  139.4380  14.085
   50.4589  128.0865  13.502
   50.4789  148.0472  14.517
   50.4989  163.7460  15.269
   50.5189  143.8468  14.313
   50.5389  133.9099  13.812
   50.5589  133.9426  13.815
   50.5789  143.9521  14.324
   50.5989  125.4543  13.373
   50.6189  144.0224  14.331
   50.6389  142.6313  14.263
   50.6589  142.6661  14.267
   50.6789  124.1498  13.310
   50.6989  144.1632  14.345
   50.7189  117.0719  12.928
   50.7389  139.9494  14.137
   50.7589  134.2700  13.849
   50.7788  127.1589  13.479
   50.7988  118.6153  13.020
   50.8188  118.6443  13.023
   50.8388  130.1117  13.639
   50.8588  122.9928  13.263
   50.8788  134.4668  13.869
   50.8988  101.5902  12.057
   50.9188  156.0006  14.942
   50.9388  130.2709  13.656
   50.9588  146.0536  14.461
   50.9788  118.8766  13.048
   50.9988  147.5576  14.539
   51.0188  130.3983  13.669
   51.0388  136.1634  13.970
   51.0588  133.3295  13.826
   51.0788  123.3241  13.298
   51.0988  133.3947  13.832
   51.1188  149.2091  14.631
   51.1388  143.5054  14.351
   51.1588  127.7511  13.542
   51.1788  124.9108  13.392
   51.1988  127.8136  13.548
   51.2188  119.2262  13.087
   51.2388  106.3241  12.360
   51.2588  126.4704  13.482
   51.2788  117.8763  13.017
   51.2988  125.0945  13.412
   51.3187  132.3160  13.795
   51.3387  107.8928  12.458
   51.3587   99.2857  11.953
   51.3787  126.6562  13.502
   51.3987  113.7306  12.796
   51.4187  126.7183  13.508
   51.4387  120.9880  13.201
   51.4587  113.8142  12.805
   51.4787  116.7242  12.969
   51.4987  118.1942  13.052
   51.5187  119.6649  13.135
   51.5387  113.9259  12.818
   51.5587  125.4935  13.454
   51.5787  113.9818  12.824
   51.5987  108.2371  12.498
   51.6187  109.7071  12.584
   51.6387  109.7341  12.587
   51.6587   99.6514  11.997
   51.6787  117.0108  13.001
   51.6987  134.3787  13.934
   51.7187  125.7399  13.481
   51.7387  135.8903  14.016
   51.7587   98.3277  11.924
   51.7787  124.3862  13.413
   51.7987  117.1832  13.020
   51.8187  131.6825  13.804
   51.8387  120.1355  13.187
   51.8586  121.6127  13.269
   51.8786  117.2981  13.033
   51.8986  165.1268  15.466
   51.9186  127.4976  13.591
   51.9386   98.5451  11.950
   51.9586  111.6152  12.720
   51.9786  121.7920  13.289
   51.9986  123.2721  13.371
   52.0186  129.1049  13.685
   52.0386  153.8031  14.939
   52.0586  119.0090  13.142
   52.0786  136.4585  14.075
   52.0986  132.1359  13.852
   52.1186  146.6923  14.596
   52.1386  138.0118  14.160
   52.1586  133.6864  13.938
   52.1786  132.2658  13.865
   52.1986  130.8445  13.792
   52.2186  126.5141  13.564
   52.2386  126.5452  13.567
   52.2586  123.6665  13.414
   52.2786  135.3390  14.034
   52.2986  133.9167  13.962
   52.3186  120.8458  13.265
   52.3386  100.4869  12.097
   52.3586  128.1887  13.665
   52.3785   97.6221  11.926
   52.3985  142.8257  14.428
   52.4185  109.3322  12.625
   52.4385  145.8122  14.581
   52.4585  135.6387  14.065
   52.4785  154.6369  15.020
   52.4985  178.0222  16.117
   52.5185  157.6322  15.168
   52.5385  172.2701  15.859
   52.5585  189.8358  16.650
   52.5785  194.2644  16.845
   52.5985  151.9434  14.899
   52.6185  172.4398  15.874
   52.6385  154.9416  15.049
   52.6585  157.9039  15.194
   52.6785  150.6306  14.842
   52.6985  137.5026  14.182
   52.7185  158.0206  15.206
   52.7385  112.6906  12.842
   52.7585  117.1099  13.093
   52.7785  118.6030  13.178
   52.7985  111.3092  12.768
   52.8185  147.9605  14.723
   52.8385  143.6010  14.506
   52.8585   96.7347  11.907
   52.8785  114.3510  12.948
   52.8985  117.3119  13.116
   52.9184  117.3407  13.119
   52.9384  123.2381  13.446
   52.9584  121.8009  13.369
   52.9784  133.5737  14.002
   52.9984  139.4794  14.310
   53.0184  118.9538  13.217
   53.0384  110.1696  12.721
   53.0584  111.6660  12.809
   53.0784  113.1632  12.896
   53.0984  102.9010  12.299
   53.1184  139.6857  14.331
   53.1384  113.2469  12.906
   53.1584  102.9771  12.308
   53.1784  135.3746  14.114
   53.1984  114.8024  12.999
   53.2184  116.3029  13.085
   53.2384  128.1120  13.735
   53.2584  114.8874  13.008
   53.2784  123.7553  13.503
   53.2984  106.1022  12.504
   53.3184  129.7124  13.827
   53.3384  122.3725  13.432
   53.3584  116.5038  13.108
   53.3784  138.6589  14.302
   53.3984  137.2176  14.229
   53.4184  140.2031  14.385
   53.4384  119.5711  13.286
   53.4583  147.6548  14.765
   53.4783  122.5837  13.455
   53.4983  119.6594  13.295
   53.5183  146.2865  14.702
   53.5383  146.3225  14.706
   53.5583  159.6640  15.364
   53.5783  150.8309  14.934
   53.5983  136.0771  14.187
   53.6183  116.8777  13.150
   53.6383  142.0636  14.499
   53.6583  125.8165  13.647
   53.6783  118.4447  13.243
   53.6983  119.9549  13.328
   53.7183  140.7225  14.438
   53.7383  131.8673  13.978
   53.7583  134.8639  14.138
   53.7783  127.4852  13.747
   53.7983  137.8959  14.299
   53.8183  142.3793  14.532
   53.8383  143.8979  14.611
   53.8583  118.7080  13.272
   53.8783  146.9374  14.768
   53.8983  144.0045  14.621
   53.9183  133.6453  14.087
   53.9383  155.9580  15.220
   53.9583  123.3115  13.535
   53.9782  126.3139  13.701
   53.9982  130.8043  13.944
   54.0182  101.1010  12.260
   54.0382  111.5360  12.879
   54.0582  132.3887  14.033
   54.0782  136.8850  14.271
   54.0982  120.5481  13.394
   54.1182  114.6233  13.063
   54.1382  125.0745  13.647
   54.1582  114.6799  13.069
   54.1782  128.1157  13.815
   54.1982  132.6176  14.057
   54.2182  129.6694  13.902
   54.2382  116.2840  13.167
   54.2582  126.7510  13.748
   54.2782  105.9005  12.568
   54.2982  128.3055  13.836
   54.3182  123.8603  13.595
   54.3382  119.4129  13.351
   54.3582  132.8797  14.085
   54.3782   97.0709  12.040
   54.3982  120.9951  13.444
   54.4182  127.0015  13.775
   54.4382  118.0659  13.283
   54.4582  118.0950  13.287
   54.4782  115.1337  13.121
   54.4982  127.1270  13.789
   54.5181  103.2225  12.427
   54.5381  134.6713  14.196
   54.5581  139.1947  14.434
   54.5781  119.7670  13.390
   54.5981  118.2991  13.310
   54.6181  101.8522  12.351
   54.6381  134.8376  14.213
   54.6581  119.8853  13.404
   54.6781  113.9191  13.067
   54.6981  125.9417  13.741
   54.7181  116.9747  13.245
   54.7381  100.5031  12.278
   54.7581  120.0333  13.420
   54.7781  124.5653  13.673
   54.7981  118.5914  13.343
   54.8181  147.1497  14.864
   54.8381  114.1443  13.093
   54.8581  142.7156  14.642
   54.8781  100.6769  12.300
   54.8981  138.2770  14.416
   54.9181  130.7942  14.023
   54.9381  129.3228  13.945
   54.9581  136.8753  14.348
   54.9781  170.0080  15.993
   54.9981  133.9332  14.197
   55.0181  139.9872  14.516
   55.0381  123.4600  13.634
   55.0580  138.5501  14.445
   55.0780  122.0145  13.557
