2.0880	95
2.1080	99
2.1280	72
2.1480	100
2.1680	75
2.1880	93
2.2079	95
2.2279	88
2.2479	78
2.2679	97
2.2879	71
2.3079	81
2.3279	76
2.3479	70
2.3679	65
2.3879	78
2.4079	85
2.4279	71
2.4479	81
2.4679	96
2.4879	86
2.5079	73
2.5279	83
2.5479	94
2.5679	80
2.5879	90
2.6079	83
2.6279	94
2.6479	88
2.6679	70
2.6879	78
2.7079	63
2.7279	71
2.7478	86
2.7678	82
2.7878	77
2.8078	83
2.8278	84
2.8478	73
2.8678	79
2.8878	62
2.9078	71
2.9278	66
2.9478	66
2.9678	58
2.9878	60
3.0078	58
3.0278	71
3.0478	60
3.0678	65
3.0878	58
3.1078	68
3.1278	50
3.1478	61
3.1678	64
3.1878	54
3.2078	59
3.2278	54
3.2478	68
3.2678	62
3.2877	57
3.3077	50
3.3277	50
3.3477	65
3.3677	71
3.3877	61
3.4077	63
3.4277	68
3.4477	53
3.4677	54
3.4877	52
3.5077	63
3.5277	64
3.5477	57
3.5677	56
3.5877	68
3.6077	60
3.6277	62
3.6477	54
3.6677	62
3.6877	49
3.7077	42
3.7277	56
3.7477	53
3.7677	60
3.7877	69
3.8076	50
3.8276	60
3.8476	58
3.8676	61
3.8876	67
3.9076	56
3.9276	62
3.9476	60
3.9676	63
3.9876	52
4.0076	55
4.0276	52
4.0476	54
4.0676	57
4.0876	50
4.1076	69
4.1276	59
4.1476	61
4.1676	69
4.1876	69
4.2076	58
4.2276	86
4.2476	82
4.2676	62
4.2876	75
4.3076	60
4.3276	77
4.3475	68
4.3675	82
4.3875	86
4.4075	75
4.4275	89
4.4475	84
4.4675	87
4.4875	94
4.5075	106
4.5275	103
4.5475	103
4.5675	100
4.5875	108
4.6075	121
4.6275	122
4.6475	143
4.6675	151
4.6875	136
4.7075	167
4.7275	157
4.7475	196
4.7675	195
4.7875	171
4.8075	210
4.8275	220
4.8475	255
4.8675	253
4.8874	299
4.9074	327
4.9274	329
4.9474	367
4.9674	371
4.9874	405
5.0074	447
5.0274	467
5.0474	576
5.0674	614
5.0874	654
5.1074	804
5.1274	824
5.1474	1000
5.1674	1303
5.1874	1562
5.2074	1981
5.2274	2790
5.2474	3790
5.2674	3062
5.2874	1642
5.3074	518
5.3274	186
5.3474	121
5.3674	90
5.3874	72
5.4073	75
5.4273	86
5.4473	59
5.4673	66
5.4873	47
5.5073	60
5.5273	67
5.5473	49
5.5673	57
5.5873	48
5.6073	48
5.6273	62
5.6473	51
5.6673	48
5.6873	55
5.7073	64
5.7273	51
5.7473	49
5.7673	47
5.7873	48
5.8073	48
5.8273	51
5.8473	51
5.8673	48
5.8873	56
5.9073	46
5.9273	43
5.9472	65
5.9672	51
5.9872	50
6.0072	48
6.0272	54
6.0472	52
6.0672	57
6.0872	57
6.1072	45
6.1272	55
6.1472	60
6.1672	50
6.1872	64
6.2072	68
6.2272	45
6.2472	64
6.2672	56
6.2872	56
6.3072	62
6.3272	43
6.3472	45
6.3672	59
6.3872	52
6.4072	43
6.4272	63
6.4472	53
6.4672	53
6.4871	42
6.5071	55
6.5271	50
6.5471	50
6.5671	54
6.5871	55
6.6071	51
6.6271	61
6.6471	53
6.6671	65
6.6871	54
6.7071	57
6.7271	46
6.7471	63
6.7671	61
6.7871	54
6.8071	32
6.8271	55
6.8471	60
6.8671	56
6.8871	57
6.9071	56
6.9271	74
6.9471	63
6.9671	69
6.9871	64
7.0071	67
7.0270	74
7.0470	75
7.0670	82
7.0870	83
7.1070	87
7.1270	84
7.1470	91
7.1670	90
7.1870	103
7.2070	109
7.2270	105
7.2470	127
7.2670	130
7.2870	154
7.3070	148
7.3270	195
7.3470	251
7.3670	290
7.3870	330
7.4070	335
7.4270	199
7.4470	105
7.4670	72
7.4870	66
7.5070	80
7.5270	70
7.5469	60
7.5669	67
7.5869	69
7.6069	84
7.6269	74
7.6469	59
7.6669	47
7.6869	82
7.7069	67
7.7269	67
7.7469	60
7.7669	58
7.7869	66
7.8069	59
7.8269	72
7.8469	65
7.8669	57
7.8869	71
7.9069	61
7.9269	66
7.9469	55
7.9669	57
7.9869	72
8.0069	62
8.0269	70
8.0469	58
8.0669	64
8.0868	57
8.1068	68
8.1268	60
8.1468	66
8.1668	51
8.1868	60
8.2068	56
8.2268	66
8.2468	68
8.2668	65
8.2868	70
8.3068	75
8.3268	59
8.3468	65
8.3668	84
8.3868	61
8.4068	66
8.4268	71
8.4468	62
8.4668	71
8.4868	59
8.5068	61
8.5268	83
8.5468	54
8.5668	80
8.5868	78
8.6068	66
8.6267	71
8.6467	78
8.6667	80
8.6867	57
8.7067	76
8.7267	73
8.7467	80
8.7667	74
8.7867	76
8.8067	57
8.8267	71
8.8467	77
8.8667	84
8.8867	75
8.9067	62
8.9267	72
8.9467	77
8.9667	85
8.9867	69
9.0067	83
9.0267	73
9.0467	76
9.0667	66
9.0867	84
9.1067	94
9.1267	65
9.1466	75
9.1666	85
9.1866	76
9.2066	84
9.2266	105
9.2466	61
9.2666	84
9.2866	75
9.3066	79
9.3266	81
9.3466	70
9.3666	91
9.3866	91
9.4066	101
9.4266	81
9.4466	87
9.4666	102
9.4866	93
9.5066	78
9.5266	78
9.5466	97
9.5666	82
9.5866	89
9.6066	94
9.6266	103
9.6466	104
9.6666	100
9.6865	90
9.7065	84
9.7265	80
9.7465	95
9.7665	96
9.7865	104
9.8065	96
9.8265	99
9.8465	91
9.8665	111
9.8865	92
9.9065	109
9.9265	96
9.9465	94
9.9665	113
9.9865	113
10.0065	113
10.0265	132
10.0465	125
10.0665	127
10.0865	143
10.1065	155
10.1265	176
10.1465	164
10.1665	194
10.1865	220
10.2065	244
10.2264	240
10.2464	315
10.2664	345
10.2864	420
10.3064	483
10.3264	629
10.3464	650
10.3664	953
10.3864	1162
10.4064	1539
10.4264	2101
10.4464	2501
10.4664	2362
10.4864	1532
10.5064	704
10.5264	301
10.5464	168
10.5664	128
10.5864	142
10.6064	136
10.6264	138
10.6464	126
10.6664	103
10.6864	108
10.7064	111
10.7264	102
10.7463	93
10.7663	91
10.7863	105
10.8063	107
10.8263	100
10.8463	102
10.8663	95
10.8863	94
10.9063	87
10.9263	101
10.9463	102
10.9663	107
10.9863	100
11.0063	101
11.0263	111
11.0463	108
11.0663	112
11.0863	95
11.1063	116
11.1263	93
11.1463	121
11.1663	102
11.1863	104
11.2063	107
11.2263	114
11.2463	113
11.2663	120
11.2862	99
11.3062	119
11.3262	101
11.3462	122
11.3662	111
11.3862	123
11.4062	134
11.4262	141
11.4462	134
11.4662	158
11.4862	173
11.5062	204
11.5262	232
11.5462	225
11.5662	259
11.5862	312
11.6062	395
11.6262	472
11.6462	596
11.6662	731
11.6862	679
11.7062	498
11.7262	332
11.7462	186
11.7662	142
11.7862	124
11.8062	125
11.8261	148
11.8461	150
11.8661	126
11.8861	119
11.9061	158
11.9261	144
11.9461	149
11.9661	196
11.9861	205
12.0061	240
12.0261	263
12.0461	229
12.0661	193
12.0861	161
12.1061	177
12.1261	211
12.1461	235
12.1661	234
12.1861	249
12.2061	319
12.2261	334
12.2461	408
12.2661	520
12.2861	656
12.3061	767
12.3261	1061
12.3460	1473
12.3660	1956
12.3860	2177
12.4060	2017
12.4260	1246
12.4460	696
12.4660	341
12.4860	205
12.5060	159
12.5260	162
12.5460	140
12.5660	122
12.5860	151
12.6060	140
12.6260	133
12.6460	118
12.6660	141
12.6860	123
12.7060	141
12.7260	117
12.7460	111
12.7660	113
12.7860	118
12.8060	126
12.8260	108
12.8460	109
12.8660	130
12.8859	127
12.9059	120
12.9259	113
12.9459	136
12.9659	118
12.9859	103
13.0059	118
13.0259	138
13.0459	123
13.0659	99
13.0859	107
13.1059	128
13.1259	119
13.1459	112
13.1659	117
13.1859	117
13.2059	138
13.2259	110
13.2459	129
13.2659	120
13.2859	119
13.3059	130
13.3259	122
13.3459	103
13.3659	122
13.3859	121
13.4059	114
13.4258	119
13.4458	126
13.4658	121
13.4858	119
13.5058	131
13.5258	118
13.5458	128
13.5658	121
13.5858	126
13.6058	135
13.6258	118
13.6458	127
13.6658	125
13.6858	127
13.7058	147
13.7258	129
13.7458	125
13.7658	129
13.7858	129
13.8058	129
13.8258	132
13.8458	134
13.8658	140
13.8858	120
13.9058	121
13.9258	150
13.9458	146
13.9657	148
13.9857	138
14.0057	152
14.0257	138
14.0457	143
14.0657	138
14.0857	144
14.1057	130
14.1257	135
14.1457	140
14.1657	129
14.1857	137
14.2057	127
14.2257	130
14.2457	123
14.2657	144
14.2857	118
14.3057	122
14.3257	125
14.3457	136
14.3657	149
14.3857	149
14.4057	138
14.4257	154
14.4457	138
14.4657	131
14.4856	128
14.5056	150
14.5256	135
14.5456	131
14.5656	154
14.5856	151
14.6056	145
14.6256	171
14.6456	185
14.6656	201
14.6856	232
14.7056	263
14.7256	307
14.7456	358
14.7656	324
14.7856	299
14.8056	260
14.8256	209
14.8456	180
14.8656	160
14.8856	179
14.9056	185
14.9256	182
14.9456	193
14.9656	194
14.9856	209
15.0056	250
15.0255	305
15.0455	269
15.0655	260
15.0855	200
15.1055	233
15.1255	202
15.1455	254
15.1655	260
15.1855	329
15.2055	381
15.2255	476
15.2455	524
15.2655	695
15.2855	906
15.3055	1322
15.3255	1504
15.3455	1290
15.3655	1021
15.3855	547
15.4055	374
15.4255	237
15.4455	196
15.4655	177
15.4855	181
15.5055	193
15.5255	178
15.5455	179
15.5654	174
15.5854	178
15.6054	166
15.6254	154
15.6454	186
15.6654	173
15.6854	177
15.7054	189
15.7254	173
15.7454	166
15.7654	177
15.7854	183
15.8054	176
15.8254	175
15.8454	177
15.8654	185
15.8854	173
15.9054	207
15.9254	166
15.9454	188
15.9654	162
15.9854	178
16.0054	171
16.0254	179
16.0454	187
16.0654	172
16.0853	198
16.1053	187
16.1253	173
16.1453	193
16.1653	203
16.1853	199
16.2053	190
16.2253	217
16.2453	247
16.2653	274
16.2853	305
16.3053	313
16.3253	377
16.3453	379
16.3653	543
16.3853	624
16.4053	876
16.4253	1096
16.4453	1683
16.4653	2044
16.4853	2365
16.5053	2226
16.5253	1528
16.5453	1064
16.5653	543
16.5853	361
16.6053	267
16.6252	234
16.6452	208
16.6652	211
16.6852	200
16.7052	207
16.7252	205
16.7452	201
16.7652	191
16.7852	206
16.8052	203
16.8252	191
16.8452	215
16.8652	197
16.8852	236
16.9052	205
16.9252	208
16.9452	243
16.9652	254
16.9852	299
17.0052	315
17.0252	379
17.0452	374
17.0652	378
17.0852	321
17.1052	328
17.1252	364
17.1452	414
17.1651	529
17.1851	567
17.2051	780
17.2251	962
17.2451	1510
17.2651	1680
17.2851	1982
17.3051	1715
17.3251	1198
17.3451	867
17.3651	461
17.3851	312
17.4051	255
17.4251	242
17.4451	236
17.4651	221
17.4851	210
17.5051	225
17.5251	202
17.5451	223
17.5651	191
17.5851	234
17.6051	224
17.6251	208
17.6451	217
17.6651	233
17.6850	220
17.7050	201
17.7250	220
17.7450	222
17.7650	219
17.7850	190
17.8050	219
17.8250	198
17.8450	219
17.8650	221
17.8850	219
17.9050	228
17.9250	222
17.9450	228
17.9650	239
17.9850	230
18.0050	225
18.0250	224
18.0450	225
18.0650	245
18.0850	221
18.1050	235
18.1250	264
18.1450	238
18.1650	266
18.1850	287
18.2050	307
18.2249	325
18.2449	354
18.2649	440
18.2849	541
18.3049	584
18.3249	612
18.3449	516
18.3649	408
18.3849	337
18.4049	290
18.4249	285
18.4449	238
18.4649	261
18.4849	230
18.5049	223
18.5249	236
18.5449	239
18.5649	266
18.5849	253
18.6049	280
18.6249	256
18.6449	242
18.6649	290
18.6849	317
18.7049	322
18.7249	370
18.7449	380
18.7648	454
18.7848	560
18.8048	610
18.8248	635
18.8448	556
18.8648	469
18.8848	381
18.9048	303
18.9248	302
18.9448	298
18.9648	264
18.9848	263
19.0048	295
19.0248	303
19.0448	288
19.0648	305
19.0848	298
19.1048	271
19.1248	285
19.1448	281
19.1648	287
19.1848	274
19.2048	301
19.2248	339
19.2448	363
19.2648	368
19.2847	354
19.3047	321
19.3247	311
19.3447	283
19.3647	289
19.3847	295
19.4047	280
19.4247	283
19.4447	280
19.4647	263
19.4847	319
19.5047	273
19.5247	302
19.5447	273
19.5647	275
19.5847	278
19.6047	267
19.6247	296
19.6447	286
19.6647	310
19.6847	273
19.7047	245
19.7247	279
19.7447	297
19.7647	312
19.7847	301
19.8047	294
19.8246	270
19.8446	308
19.8646	283
19.8846	286
19.9046	297
19.9246	292
19.9446	284
19.9646	295
19.9846	285
20.0046	326
20.0246	315
20.0446	326
20.0646	306
20.0846	317
20.1046	307
20.1246	293
20.1446	311
20.1646	316
20.1846	340
20.2046	344
20.2246	360
20.2446	355
20.2646	350
20.2846	377
20.3046	406
20.3246	457
20.3446	527
20.3645	642
20.3845	751
20.4045	1040
20.4245	1194
20.4445	1226
20.4645	1106
20.4845	847
20.5045	682
20.5245	476
20.5445	403
20.5645	318
20.5845	331
20.6045	336
20.6245	358
20.6445	359
20.6645	348
20.6845	347
20.7045	373
20.7245	352
20.7445	401
20.7645	502
20.7845	519
20.8045	663
20.8245	801
20.8445	1083
20.8645	1179
20.8845	1093
20.9044	966
20.9244	716
20.9444	578
20.9644	447
20.9844	413
21.0044	364
21.0244	374
21.0444	394
21.0644	434
21.0844	489
21.1044	534
21.1244	517
21.1444	484
21.1644	425
21.1844	434
21.2044	373
21.2244	358
21.2444	374
21.2644	352
21.2844	328
21.3044	328
21.3244	302
21.3444	329
21.3644	326
21.3844	355
21.4044	387
21.4243	396
21.4443	462
21.4643	411
21.4843	439
21.5043	401
21.5243	401
21.5443	388
21.5643	370
21.5843	373
21.6043	485
21.6243	470
21.6443	582
21.6643	609
21.6843	741
21.7043	682
21.7243	581
21.7443	540
21.7643	429
21.7843	412
21.8043	363
21.8243	353
21.8443	323
21.8643	341
21.8843	318
21.9043	326
21.9243	327
21.9443	338
21.9642	335
21.9842	317
22.0042	326
22.0242	356
22.0442	340
22.0642	357
22.0842	371
22.1042	381
22.1242	342
22.1442	344
22.1642	330
22.1842	356
22.2042	344
22.2242	350
22.2442	298
22.2642	347
22.2842	353
22.3042	306
22.3242	314
22.3442	340
22.3642	322
22.3842	298
22.4042	308
22.4242	292
22.4442	374
22.4642	350
22.4842	359
22.5041	361
22.5241	396
22.5441	449
22.5641	445
22.5841	467
22.6041	424
22.6241	412
22.6441	387
22.6641	373
22.6841	360
22.7041	359
22.7241	330
22.7441	311
22.7641	360
22.7841	317
22.8041	359
22.8241	387
22.8441	410
22.8641	469
22.8841	443
22.9041	559
22.9241	693
22.9441	903
22.9641	1176
22.9841	1256
23.0041	1223
23.0240	1154
23.0440	1072
23.0640	1018
23.0840	1169
23.1040	1241
23.1240	1468
23.1440	1416
23.1640	1205
23.1840	1033
23.2040	747
23.2240	641
23.2440	444
23.2640	387
23.2840	409
23.3040	379
23.3240	362
23.3440	360
23.3640	341
23.3840	366
23.4040	396
23.4240	443
23.4440	464
23.4640	525
23.4840	601
23.5040	876
23.5240	1003
23.5440	1362
23.5639	1398
23.5839	1207
23.6039	1107
23.6239	905
23.6439	778
23.6639	674
23.6839	710
23.7039	774
23.7239	793
23.7439	775
23.7639	628
23.7839	574
23.8039	474
23.8239	384
23.8439	337
23.8639	340
23.8839	299
23.9039	308
23.9239	314
23.9439	307
23.9639	318
23.9839	308
24.0039	322
24.0239	352
24.0439	405
24.0639	478
24.0839	526
24.1038	573
24.1238	517
24.1438	464
24.1638	410
24.1838	365
24.2038	337
24.2238	260
24.2438	258
24.2638	268
24.2838	265
24.3038	260
24.3238	262
24.3438	265
24.3638	261
24.3838	261
24.4038	235
24.4238	249
24.4438	252
24.4638	265
24.4838	287
24.5038	272
24.5238	282
24.5438	277
24.5638	269
24.5838	252
24.6038	269
24.6237	251
24.6437	267
24.6637	278
24.6837	243
24.7037	230
24.7237	248
24.7437	302
24.7637	267
24.7837	250
24.8037	225
24.8237	236
24.8437	239
24.8637	250
24.8837	228
24.9037	221
24.9237	265
24.9437	293
24.9637	236
24.9837	253
25.0037	252
25.0237	239
25.0437	267
25.0637	278
25.0837	260
25.1037	208
25.1237	239
25.1437	245
25.1636	258
25.1836	215
25.2036	277
25.2236	270
25.2436	283
25.2636	270
25.2836	265
25.3036	258
25.3236	290
25.3436	292
25.3636	276
25.3836	296
25.4036	327
25.4236	332
25.4436	369
25.4636	428
25.4836	559
25.5036	694
25.5236	986
25.5436	1360
25.5636	2031
25.5836	2654
25.6036	2915
25.6236	2797
25.6436	2251
25.6636	1923
25.6836	1409
25.7035	847
25.7235	577
25.7435	406
25.7635	345
25.7835	310
25.8035	265
25.8235	290
25.8435	275
25.8635	271
25.8835	282
25.9035	255
25.9235	267
25.9435	249
25.9635	241
25.9835	236
26.0035	264
26.0235	254
26.0435	241
26.0635	258
26.0835	282
26.1035	305
26.1235	336
26.1435	339
26.1635	344
26.1835	288
26.2035	325
26.2234	291
26.2434	278
26.2634	260
26.2834	238
26.3034	185
26.3234	215
26.3434	185
26.3634	209
26.3834	237
26.4034	196
26.4234	218
26.4434	226
26.4634	184
26.4834	192
26.5034	206
26.5234	194
26.5434	192
26.5634	199
26.5834	211
26.6034	211
26.6234	207
26.6434	221
26.6634	198
26.6834	215
26.7034	212
26.7234	231
26.7434	212
26.7633	229
26.7833	230
26.8033	258
26.8233	270
26.8433	267
26.8633	216
26.8833	217
26.9033	224
26.9233	208
26.9433	163
26.9633	156
26.9833	196
27.0033	203
27.0233	183
27.0433	185
27.0633	213
27.0833	175
27.1033	191
27.1233	165
27.1433	186
27.1633	192
27.1833	167
27.2033	192
27.2233	199
27.2433	245
27.2633	226
27.2833	195
27.3032	205
27.3232	193
27.3432	182
27.3632	216
27.3832	217
27.4032	197
27.4232	191
27.4432	215
27.4632	206
27.4832	213
27.5032	206
27.5232	156
27.5432	176
27.5632	185
27.5832	185
27.6032	153
27.6232	182
27.6432	196
27.6632	196
27.6832	218
27.7032	212
27.7232	212
27.7432	193
27.7632	170
27.7832	171
27.8032	184
27.8232	173
27.8431	153
27.8631	180
27.8831	172
27.9031	191
27.9231	157
27.9431	168
27.9631	179
27.9831	198
28.0031	205
28.0231	169
28.0431	204
28.0631	170
28.0831	178
28.1031	176
28.1231	173
28.1431	151
28.1631	159
28.1831	173
28.2031	176
28.2231	171
28.2431	190
28.2631	213
28.2831	180
28.3031	169
28.3231	165
28.3431	169
28.3630	157
28.3830	159
28.4030	170
28.4230	174
28.4430	167
28.4630	201
28.4830	170
28.5030	185
28.5230	155
28.5430	187
28.5630	170
28.5830	185
28.6030	176
28.6230	179
28.6430	183
28.6630	220
28.6830	243
28.7030	277
28.7230	334
28.7430	317
28.7630	285
28.7830	284
28.8030	311
28.8230	324
28.8430	393
28.8630	413
28.8830	342
28.9029	323
28.9229	291
28.9429	262
28.9629	212
28.9829	180
29.0029	189
29.0229	164
29.0429	158
29.0629	150
29.0829	166
29.1029	153
29.1229	162
29.1429	164
29.1629	184
29.1829	152
29.2029	151
29.2229	167
29.2429	173
29.2629	175
29.2829	203
29.3029	273
29.3229	265
29.3429	288
29.3629	255
29.3829	216
29.4029	211
29.4229	177
29.4428	180
29.4628	172
29.4828	174
29.5028	171
29.5228	139
29.5428	160
29.5628	177
29.5828	191
29.6028	196
29.6228	207
29.6428	223
29.6628	228
29.6828	268
29.7028	278
29.7228	231
29.7428	229
29.7628	206
29.7828	198
29.8028	169
29.8228	174
29.8428	142
29.8628	134
29.8828	131
29.9028	114
29.9228	133
29.9428	132
29.9627	143
29.9827	128
30.0027	141
30.0227	135
30.0427	150
30.0627	143
30.0827	161
30.1027	155
30.1227	157
30.1427	146
30.1627	120
30.1827	146
30.2027	147
30.2227	135
30.2427	122
30.2627	133
30.2827	138
30.3027	147
30.3227	142
30.3427	143
30.3627	160
30.3827	159
30.4027	158
30.4227	180
30.4427	178
30.4627	184
30.4827	199
30.5026	204
30.5226	186
30.5426	205
30.5626	215
30.5826	203
30.6026	189
30.6226	197
30.6426	194
30.6626	174
30.6826	199
30.7026	175
30.7226	177
30.7426	165
30.7626	185
30.7826	154
30.8026	193
30.8226	214
30.8426	276
30.8626	274
30.8826	287
30.9026	275
30.9226	253
30.9426	224
30.9626	181
30.9826	176
31.0026	174
31.0226	193
31.0425	204
31.0625	225
31.0825	235
31.1025	201
31.1225	213
31.1425	186
31.1625	179
31.1825	154
31.2025	152
31.2225	156
31.2425	165
31.2625	174
31.2825	214
31.3025	217
31.3225	258
31.3425	221
31.3625	235
31.3825	215
31.4025	220
31.4225	179
31.4425	168
31.4625	179
31.4825	163
31.5025	154
31.5225	177
31.5425	161
31.5624	175
31.5824	177
31.6024	159
31.6224	186
31.6424	157
31.6624	152
31.6824	129
31.7024	117
31.7224	120
31.7424	146
31.7624	146
31.7824	146
31.8024	142
31.8224	119
31.8424	123
31.8624	147
31.8824	133
31.9024	150
31.9224	139
31.9424	146
31.9624	138
31.9824	120
32.0024	113
32.0224	132
32.0424	126
32.0624	123
32.0824	115
32.1023	111
32.1223	131
32.1423	123
32.1623	122
32.1823	124
32.2023	131
32.2223	116
32.2423	134
32.2623	131
32.2823	113
32.3023	119
32.3223	116
32.3423	121
32.3623	121
32.3823	155
32.4023	123
32.4223	110
32.4423	118
32.4623	121
32.4823	115
32.5023	131
32.5223	127
32.5423	116
32.5623	130
32.5823	112
32.6023	133
32.6223	137
32.6422	116
32.6622	133
32.6822	114
32.7022	121
32.7222	142
32.7422	122
32.7622	137
32.7822	141
32.8022	118
32.8222	130
32.8422	120
32.8622	130
32.8822	123
32.9022	137
32.9222	132
32.9422	135
32.9622	132
32.9822	151
33.0022	158
33.0222	129
33.0422	158
33.0622	142
33.0822	110
33.1022	127
33.1222	151
33.1422	160
33.1621	140
33.1821	140
33.2021	170
33.2221	186
33.2421	169
33.2621	174
33.2821	132
33.3021	172
33.3221	178
33.3421	139
33.3621	125
33.3821	113
33.4021	131
33.4221	145
33.4421	138
33.4621	133
33.4821	146
33.5021	160
33.5221	147
33.5421	141
33.5621	119
33.5821	123
33.6021	120
33.6221	132
33.6421	110
33.6621	114
33.6821	108
33.7020	102
33.7220	103
33.7420	132
33.7620	103
33.7820	112
33.8020	123
33.8220	122
33.8420	109
33.8620	124
33.8820	118
33.9020	140
33.9220	108
33.9420	148
33.9620	180
33.9820	197
34.0020	227
34.0220	200
34.0420	194
34.0620	184
34.0820	183
34.1020	175
34.1220	155
34.1420	171
34.1620	140
34.1820	154
34.2020	135
34.2220	115
34.2419	130
34.2619	116
34.2819	129
34.3019	134
34.3219	133
34.3419	137
34.3619	134
34.3819	137
34.4019	157
34.4219	163
34.4419	147
34.4619	139
34.4819	161
34.5019	154
34.5219	146
34.5419	118
34.5619	126
34.5819	114
34.6019	111
34.6219	124
34.6419	96
34.6619	96
34.6819	88
34.7019	99
34.7219	113
34.7419	118
34.7619	112
34.7818	101
34.8018	107
34.8218	95
34.8418	131
34.8618	109
34.8818	127
34.9018	106
34.9218	114
34.9418	114
34.9618	101
34.9818	104
35.0018	117
35.0218	101
35.0418	95
35.0618	124
35.0818	105
35.1018	107
35.1218	125
35.1418	132
35.1618	141
35.1818	146
35.2018	127
35.2218	132
35.2418	113
35.2618	137
35.2818	155
35.3017	122
35.3217	148
35.3417	156
35.3617	123
35.3817	122
35.4017	119
35.4217	156
35.4417	118
35.4617	128
35.4817	117
35.5017	122
35.5217	106
35.5417	146
35.5617	148
35.5817	128
35.6017	130
35.6217	117
35.6417	131
35.6617	137
35.6817	144
35.7017	149
35.7217	130
35.7417	119
35.7617	118
35.7817	103
35.8017	126
35.8217	139
35.8416	113
35.8616	108
35.8816	121
35.9016	126
35.9216	110
35.9416	121
35.9616	107
35.9816	116
36.0016	130
36.0216	144
36.0416	170
36.0616	142
36.0816	150
36.1016	155
36.1216	154
36.1416	140
36.1616	155
36.1816	123
36.2016	114
36.2216	131
36.2416	116
36.2616	120
36.2816	104
36.3016	123
36.3216	122
36.3416	135
36.3616	119
36.3815	126
36.4015	144
36.4215	160
36.4415	186
36.4615	195
36.4815	175
36.5015	165
36.5215	151
36.5415	149
36.5615	120
36.5815	138
36.6015	138
36.6215	121
36.6415	106
36.6615	99
36.6815	103
36.7015	106
36.7215	98
36.7415	110
36.7615	104
36.7815	135
36.8015	105
36.8215	113
36.8415	113
36.8615	117
36.8815	127
36.9014	127
36.9214	152
36.9414	134
36.9614	143
36.9814	137
37.0014	131
37.0214	130
37.0414	104
37.0614	120
37.0814	118
37.1014	129
37.1214	123
37.1414	112
37.1614	107
37.1814	120
37.2014	129
37.2214	130
37.2414	141
37.2614	117
37.2814	118
37.3014	123
37.3214	111
37.3414	97
37.3614	98
37.3814	123
37.4014	106
37.4214	118
37.4413	121
37.4613	116
37.4813	119
37.5013	128
37.5213	110
37.5413	140
37.5613	152
37.5813	191
37.6013	242
37.6213	252
37.6413	253
37.6613	241
37.6813	228
37.7013	234
37.7213	227
37.7413	194
37.7613	177
37.7813	171
37.8013	171
37.8213	146
37.8413	127
37.8613	121
37.8813	108
37.9013	111
37.9213	103
37.9413	121
37.9613	81
37.9812	97
38.0012	98
38.0212	101
38.0412	95
38.0612	130
38.0812	113
38.1012	125
38.1212	134
38.1412	105
38.1612	118
38.1812	115
38.2012	115
38.2212	107
38.2412	111
38.2612	96
38.2812	113
38.3012	104
38.3212	110
38.3412	93
38.3612	109
38.3812	106
38.4012	105
38.4212	102
38.4412	107
38.4612	113
38.4812	105
38.5011	109
38.5211	115
38.5411	115
38.5611	106
38.5811	119
38.6011	92
38.6211	107
38.6411	120
38.6611	114
38.6811	112
38.7011	97
38.7211	99
38.7411	111
38.7611	107
38.7811	101
38.8011	83
38.8211	118
38.8411	89
38.8611	86
38.8811	84
38.9011	98
38.9211	113
38.9411	100
38.9611	104
38.9811	109
39.0011	122
39.0211	111
39.0410	100
39.0610	119
39.0810	115
39.1010	102
39.1210	117
39.1410	107
39.1610	111
39.1810	113
39.2010	114
39.2210	103
39.2410	124
39.2610	90
39.2810	93
39.3010	85
39.3210	78
39.3410	90
39.3610	79
39.3810	108
39.4010	82
39.4210	91
39.4410	93
39.4610	94
39.4810	96
39.5010	102
39.5210	98
39.5410	121
39.5610	90
39.5809	87
39.6009	100
39.6209	93
39.6409	83
39.6609	93
39.6809	86
39.7009	87
39.7209	82
39.7409	87
39.7609	83
39.7809	83
39.8009	85
39.8209	92
39.8409	98
39.8609	88
39.8809	105
39.9009	86
39.9209	95
39.9409	98
39.9609	71
39.9809	94
40.0009	102
40.0209	98
40.0409	90
40.0609	99
40.0809	99
40.1008	94
40.1208	89
40.1408	131
40.1608	121
40.1808	105
40.2008	152
40.2208	172
40.2408	158
40.2608	170
40.2808	156
40.3008	177
40.3208	167
40.3408	167
40.3608	141
40.3808	147
40.4008	121
40.4208	122
40.4408	129
40.4608	122
40.4808	125
40.5008	104
40.5208	124
40.5408	87
40.5608	119
40.5808	103
40.6008	94
40.6208	92
40.6407	90
40.6607	84
40.6807	70
40.7007	100
40.7207	93
40.7407	87
40.7607	93
40.7807	102
40.8007	100
40.8207	95
40.8407	80
40.8607	113
40.8807	96
40.9007	102
40.9207	87
40.9407	94
40.9607	84
40.9807	86
41.0007	81
41.0207	95
41.0407	91
41.0607	102
41.0807	99
41.1007	107
41.1207	113
41.1407	102
41.1607	99
41.1806	125
41.2006	111
41.2206	93
41.2406	91
41.2606	93
41.2806	92
41.3006	99
41.3206	102
41.3406	108
41.3606	91
41.3806	105
41.4006	128
41.4206	111
41.4406	101
41.4606	112
41.4806	118
41.5006	102
41.5206	101
41.5406	107
41.5606	102
41.5806	117
41.6006	102
41.6206	109
41.6406	110
41.6606	123
41.6806	136
41.7006	183
41.7205	161
41.7405	157
41.7605	145
41.7805	157
41.8005	131
41.8205	121
41.8405	151
41.8605	129
41.8805	137
41.9005	120
41.9205	117
41.9405	107
41.9605	121
41.9805	114
42.0005	117
42.0205	111
42.0405	123
42.0605	126
42.0805	110
42.1005	96
42.1205	110
42.1405	113
42.1605	95
42.1805	104
42.2005	99
42.2205	101
42.2404	90
42.2604	94
42.2804	111
42.3004	118
42.3204	128
42.3404	140
42.3604	167
42.3804	172
42.4004	155
42.4204	172
42.4404	152
42.4604	144
42.4804	136
42.5004	152
42.5204	158
42.5404	135
42.5604	155
42.5804	137
42.6004	129
42.6204	101
42.6404	111
42.6604	105
42.6804	94
42.7004	101
42.7204	115
42.7404	127
42.7604	127
42.7803	100
42.8003	128
42.8203	99
42.8403	96
42.8603	117
42.8803	101
42.9003	107
42.9203	108
42.9403	114
42.9603	112
42.9803	103
43.0003	108
43.0203	126
43.0403	84
43.0603	107
43.0803	97
43.1003	113
43.1203	115
43.1403	122
43.1603	143
43.1803	120
43.2003	133
43.2203	109
43.2403	111
43.2603	96
43.2803	93
43.3003	87
43.3202	111
43.3402	104
43.3602	99
43.3802	105
43.4002	109
43.4202	114
43.4402	105
43.4602	101
43.4802	99
43.5002	104
43.5202	103
43.5402	83
43.5602	96
43.5802	108
43.6002	106
43.6202	125
43.6402	119
43.6602	96
43.6802	96
43.7002	115
43.7202	91
43.7402	115
43.7602	116
43.7802	123
43.8002	127
43.8202	125
43.8401	137
43.8601	155
43.8801	129
43.9001	129
43.9201	119
43.9401	128
43.9601	140
43.9801	156
44.0001	138
44.0201	130
44.0401	127
44.0601	110
44.0801	111
44.1001	117
44.1201	111
44.1401	103
44.1601	97
44.1801	91
44.2001	107
44.2201	89
44.2401	73
44.2601	93
44.2801	81
44.3001	87
44.3201	105
44.3401	83
44.3601	97
44.3800	92
44.4000	101
44.4200	90
44.4400	106
44.4600	100
44.4800	110
44.5000	109
44.5200	113
44.5400	123
44.5600	116
44.5800	108
44.6000	117
44.6200	115
44.6400	99
44.6600	109
44.6800	125
44.7000	112
44.7200	103
44.7400	93
44.7600	91
44.7800	90
44.8000	115
44.8200	96
44.8400	100
44.8600	93
44.8800	99
44.9000	94
44.9199	89
44.9399	91
44.9599	104
44.9799	88
44.9999	98
45.0199	111
45.0399	86
45.0599	129
45.0799	123
45.0999	128
45.1199	112
45.1399	111
45.1599	127
45.1799	129
45.1999	119
45.2199	117
45.2399	116
45.2599	130
45.2799	138
45.2999	110
45.3199	133
45.3399	136
45.3599	146
45.3799	119
45.3999	134
45.4199	139
45.4398	131
45.4598	121
45.4798	134
45.4998	124
45.5198	106
45.5398	112
45.5598	112
45.5798	132
45.5998	123
45.6198	88
45.6398	102
45.6598	98
45.6798	96
45.6998	89
45.7198	116
45.7398	105
45.7598	97
45.7798	116
45.7998	103
45.8198	137
45.8398	122
45.8598	112
45.8798	111
45.8998	119
45.9198	103
45.9398	120
45.9598	98
45.9797	116
45.9997	107
46.0197	125
46.0397	126
46.0597	126
46.0797	143
46.0997	142
46.1197	119
46.1397	114
46.1597	107
46.1797	119
46.1997	121
46.2197	95
46.2397	124
46.2597	94
46.2797	103
46.2997	96
46.3197	100
46.3397	85
46.3597	104
46.3797	100
46.3997	103
46.4197	79
46.4397	101
46.4597	76
46.4797	100
46.4997	84
46.5196	86
46.5396	95
46.5596	99
46.5796	102
46.5996	84
46.6196	106
46.6396	90
46.6596	94
46.6796	103
46.6996	73
46.7196	96
46.7396	101
46.7596	106
46.7796	96
46.7996	101
46.8196	102
46.8396	104
46.8596	73
46.8796	96
46.8996	80
46.9196	102
46.9396	101
46.9596	93
46.9796	117
46.9996	125
47.0196	120
47.0395	186
47.0595	179
47.0795	163
47.0995	128
47.1195	143
47.1395	143
47.1595	170
47.1795	150
47.1995	135
47.2195	143
47.2395	128
47.2595	135
47.2795	97
47.2995	107
47.3195	110
47.3395	122
47.3595	108
47.3795	101
47.3995	106
47.4195	115
47.4395	114
47.4595	128
47.4795	128
47.4995	132
47.5195	128
47.5395	115
47.5595	123
47.5794	105
47.5994	114
47.6194	108
47.6394	122
47.6594	122
47.6794	123
47.6994	120
47.7194	122
47.7394	113
47.7594	116
47.7794	102
47.7994	116
47.8194	98
47.8394	120
47.8594	110
47.8794	115
47.8994	84
47.9194	100
47.9394	77
47.9594	104
47.9794	99
47.9994	79
48.0194	81
48.0394	82
48.0594	88
48.0794	109
48.0994	104
48.1193	101
48.1393	93
48.1593	116
48.1793	102
48.1993	108
48.2193	105
48.2393	109
48.2593	115
48.2793	112
48.2993	109
48.3193	103
48.3393	99
48.3593	103
48.3793	110
48.3993	117
48.4193	106
48.4393	108
48.4593	114
48.4793	118
48.4993	112
48.5193	122
48.5393	137
48.5593	150
48.5793	171
48.5993	129
48.6193	117
48.6393	137
48.6592	117
48.6792	103
48.6992	124
48.7192	101
48.7392	111
48.7592	110
48.7792	98
48.7992	109
48.8192	106
48.8392	95
48.8592	84
48.8792	103
48.8992	98
48.9192	93
48.9392	89
48.9592	106
48.9792	84
48.9992	110
49.0192	94
49.0392	98
49.0592	91
49.0792	102
49.0992	106
49.1192	121
49.1392	128
49.1592	124
49.1791	122
49.1991	122
49.2191	109
49.2391	115
49.2591	117
49.2791	109
49.2991	83
49.3191	115
49.3391	114
49.3591	91
49.3791	93
49.3991	100
49.4191	102
49.4391	95
49.4591	89
49.4791	96
49.4991	103
49.5191	105
49.5391	116
49.5591	113
49.5791	146
49.5991	135
49.6191	126
49.6391	146
49.6591	121
49.6791	116
49.6991	112
49.7190	118
49.7390	122
49.7590	113
49.7790	115
49.7990	98
49.8190	88
49.8390	92
49.8590	84
49.8790	95
49.8990	90
49.9190	97
49.9390	103
49.9590	77
49.9790	99
49.9990	95
50.0190	92
50.0390	91
50.0590	108
50.0790	95
50.0990	106
50.1190	90
50.1390	110
50.1590	89
50.1790	104
50.1990	74
50.2190	86
50.2390	81
50.2589	92
50.2789	83
50.2989	66
50.3189	103
50.3389	78
50.3589	80
50.3789	94
50.3989	71
50.4189	86
50.4389	98
50.4589	90
50.4789	104
50.4989	115
50.5189	101
50.5389	94
50.5589	94
50.5789	101
50.5989	88
50.6189	101
50.6389	100
50.6589	100
50.6789	87
50.6989	101
50.7189	82
50.7389	98
50.7589	94
50.7788	89
50.7988	83
50.8188	83
50.8388	91
50.8588	86
50.8788	94
50.8988	71
50.9188	109
50.9388	91
50.9588	102
50.9788	83
50.9988	103
51.0188	91
51.0388	95
51.0588	93
51.0788	86
51.0988	93
51.1188	104
51.1388	100
51.1588	89
51.1788	87
51.1988	89
51.2188	83
51.2388	74
51.2588	88
51.2788	82
51.2988	87
51.3187	92
51.3387	75
51.3587	69
51.3787	88
51.3987	79
51.4187	88
51.4387	84
51.4587	79
51.4787	81
51.4987	82
51.5187	83
51.5387	79
51.5587	87
51.5787	79
51.5987	75
51.6187	76
51.6387	76
51.6587	69
51.6787	81
51.6987	93
51.7187	87
51.7387	94
51.7587	68
51.7787	86
51.7987	81
51.8187	91
51.8387	83
51.8586	84
51.8786	81
51.8986	114
51.9186	88
51.9386	68
51.9586	77
51.9786	84
51.9986	85
52.0186	89
52.0386	106
52.0586	82
52.0786	94
52.0986	91
52.1186	101
52.1386	95
52.1586	92
52.1786	91
52.1986	90
52.2186	87
52.2386	87
52.2586	85
52.2786	93
52.2986	92
52.3186	83
52.3386	69
52.3586	88
52.3785	67
52.3985	98
52.4185	75
52.4385	100
52.4585	93
52.4785	106
52.4985	122
52.5185	108
52.5385	118
52.5585	130
52.5785	133
52.5985	104
52.6185	118
52.6385	106
52.6585	108
52.6785	103
52.6985	94
52.7185	108
52.7385	77
52.7585	80
52.7785	81
52.7985	76
52.8185	101
52.8385	98
52.8585	66
52.8785	78
52.8985	80
52.9184	80
52.9384	84
52.9584	83
52.9784	91
52.9984	95
53.0184	81
53.0384	75
53.0584	76
53.0784	77
53.0984	70
53.1184	95
53.1384	77
53.1584	70
53.1784	92
53.1984	78
53.2184	79
53.2384	87
53.2584	78
53.2784	84
53.2984	72
53.3184	88
53.3384	83
53.3584	79
53.3784	94
53.3984	93
53.4184	95
53.4384	81
53.4583	100
53.4783	83
53.4983	81
53.5183	99
53.5383	99
53.5583	108
53.5783	102
53.5983	92
53.6183	79
53.6383	96
53.6583	85
53.6783	80
53.6983	81
53.7183	95
53.7383	89
53.7583	91
53.7783	86
53.7983	93
53.8183	96
53.8383	97
53.8583	80
53.8783	99
53.8983	97
53.9183	90
53.9383	105
53.9583	83
53.9782	85
53.9982	88
54.0182	68
54.0382	75
54.0582	89
54.0782	92
54.0982	81
54.1182	77
54.1382	84
54.1582	77
54.1782	86
54.1982	89
54.2182	87
54.2382	78
54.2582	85
54.2782	71
54.2982	86
54.3182	83
54.3382	80
54.3582	89
54.3782	65
54.3982	81
54.4182	85
54.4382	79
54.4582	79
54.4782	77
54.4982	85
54.5181	69
54.5381	90
54.5581	93
54.5781	80
54.5981	79
54.6181	68
54.6381	90
54.6581	80
54.6781	76
54.6981	84
54.7181	78
54.7381	67
54.7581	80
54.7781	83
54.7981	79
54.8181	98
54.8381	76
54.8581	95
54.8781	67
54.8981	92
54.9181	87
54.9381	86
54.9581	91
54.9781	113
54.9981	89
55.0181	93
55.0381	82
55.0580	92
55.0780	81
